index,label,mean_r,mean_g,mean_b,std_r,std_g,std_b,mean_gray,std_gray,sat_mean,tissue_proxy_ratio_sat_gt_0p12,black_ratio_gray_lt_0p05,blue_dominance_ratio_b_gt_r,pink_proxy_ratio,min_pixel,max_pixel
12,1.0,0.7613418102264404,0.5167317986488342,0.8173785209655762,0.2074878215789795,0.21558767557144165,0.14387908577919006,0.6241438388824463,0.19848504662513733,0.3952130079269409,0.9124348958333334,0.0,0.6872829861111112,0.7690972222222222,0.027450980618596077,1.0
45,1.0,0.741724967956543,0.5854490399360657,0.8125379085540771,0.24727734923362732,0.2676510810852051,0.17856116592884064,0.6580636501312256,0.24876722693443298,0.3260425627231598,0.8190104166666666,0.0,0.7296006944444444,0.7483723958333334,0.027450980618596077,1.0
51,1.0,0.7161062955856323,0.555492639541626,0.7981136441230774,0.22524288296699524,0.257535457611084,0.1620745062828064,0.6311748623847961,0.23413877189159393,0.3445836901664734,0.8226996527777778,0.0,0.8491753472222222,0.724609375,0.01568627543747425,1.0
57,1.0,0.7543811202049255,0.5946946740150452,0.8223878145217896,0.22887878119945526,0.26136893033981323,0.16574837267398834,0.6683979630470276,0.23784737288951874,0.3185797333717346,0.8030598958333334,0.0,0.7737630208333334,0.7701822916666666,0.0117647061124444,1.0
102,1.0,0.76755690574646,0.5969328880310059,0.8307636380195618,0.21764037013053894,0.25040772557258606,0.15664421021938324,0.6746061444282532,0.22657349705696106,0.3185894787311554,0.8165147569444444,0.0,0.755859375,0.7950303819444444,0.01568627543747425,1.0
187,1.0,0.7650731205940247,0.556087076663971,0.8250800371170044,0.1990557610988617,0.24429388344287872,0.14102283120155334,0.6492391228675842,0.21116919815540314,0.3554116487503052,0.810546875,0.0003255208333333333,0.7888454861111112,0.7860243055555556,0.007843137718737125,1.0
195,1.0,0.7486872673034668,0.5993051528930664,0.8188534379005432,0.23702372610569,0.27438056468963623,0.17271576821804047,0.6689988970756531,0.2485439032316208,0.3136857748031616,0.7590060763888888,0.0,0.8121744791666666,0.7646484375,0.0117647061124444,1.0
382,1.0,0.7637097835540771,0.5592315793037415,0.8219290971755981,0.2273043841123581,0.25415584444999695,0.16273082792758942,0.6503180861473083,0.23088254034519196,0.3585098087787628,0.8495008680555556,0.0,0.7061631944444444,0.7559678819444444,0.0235294122248888,1.0
437,1.0,0.7595962285995483,0.5399850010871887,0.8182346820831299,0.22435562312602997,0.2349063605070114,0.15658706426620483,0.6373692750930786,0.2174883782863617,0.3742401599884033,0.8876953125,0.0,0.6328125,0.7540147569444444,0.0235294122248888,1.0
505,1.0,0.7389037609100342,0.548414945602417,0.8048087954521179,0.2529270350933075,0.265703022480011,0.1813419759273529,0.6345999836921692,0.24877606332302094,0.3663038909435272,0.8615451388888888,0.0,0.6349826388888888,0.71484375,0.0235294122248888,1.0
557,1.0,0.7355587482452393,0.561642587184906,0.805793046951294,0.24627406895160675,0.26975294947624207,0.17781290411949158,0.6414766907691956,0.24902524054050446,0.3501908481121063,0.8299696180555556,0.0,0.7006293402777778,0.7287326388888888,0.019607843831181526,1.0
565,1.0,0.7288411259651184,0.5798245668411255,0.8047376871109009,0.24940231442451477,0.27850598096847534,0.18053096532821655,0.6500206589698792,0.25643453001976013,0.329328715801239,0.7922092013888888,0.0,0.7484809027777778,0.7192925347222222,0.027450980618596077,1.0
603,1.0,0.7361472249031067,0.5175496935844421,0.8039514422416687,0.21508806943893433,0.23047524690628052,0.15098005533218384,0.6155601143836975,0.21121267974376678,0.38829460740089417,0.8929036458333334,0.0,0.7588975694444444,0.7289496527777778,0.01568627543747425,1.0
705,1.0,0.7234592437744141,0.5435619354248047,0.7967537045478821,0.25014713406562805,0.2657332420349121,0.17913123965263367,0.6262151002883911,0.24775782227516174,0.36478790640830994,0.8549262152777778,0.0,0.6940104166666666,0.7054036458333334,0.01568627543747425,1.0
778,1.0,0.7097102999687195,0.5472452640533447,0.7886335849761963,0.2611275613307953,0.27866584062576294,0.1881750375032425,0.6233406066894531,0.2607611417770386,0.35923904180526733,0.8363715277777778,0.0,0.7008463541666666,0.6764322916666666,0.01568627543747425,1.0
838,1.0,0.7298943400382996,0.5113494396209717,0.7965388298034668,0.23845243453979492,0.2482944279909134,0.168809711933136,0.609205961227417,0.2306850105524063,0.39816850423812866,0.8872612847222222,0.0,0.6743706597222222,0.7071397569444444,0.0117647061124444,1.0
906,1.0,0.7776849865913391,0.594370424747467,0.8340613842010498,0.22943054139614105,0.2630298137664795,0.1636420339345932,0.6765062808990479,0.23826618492603302,0.32832905650138855,0.8128255208333334,0.0,0.6115451388888888,0.7625868055555556,0.027450980618596077,1.0
1064,1.0,0.7237064838409424,0.5261566042900085,0.7949231863021851,0.2405845671892166,0.26451876759529114,0.17359225451946259,0.6158633828163147,0.2428705245256424,0.3834821879863739,0.8594835069444444,0.0,0.7494574652777778,0.6974826388888888,0.01568627543747425,1.0
1083,1.0,0.7344005107879639,0.5575567483901978,0.8060938119888306,0.23765134811401367,0.2598114013671875,0.17044730484485626,0.6387662887573242,0.2396453469991684,0.3512973487377167,0.8459201388888888,0.0,0.7281901041666666,0.734375,0.019607843831181526,1.0
1101,1.0,0.7398645877838135,0.505841076374054,0.8027194738388062,0.22608764469623566,0.23140203952789307,0.15774211287498474,0.6096582412719727,0.21540366113185883,0.40397801995277405,0.9060329861111112,0.0,0.6563585069444444,0.7217881944444444,0.0117647061124444,1.0
1257,1.0,0.7669623494148254,0.5931530594825745,0.8291432857513428,0.22100111842155457,0.26327264308929443,0.1589379608631134,0.6720249652862549,0.23364925384521484,0.32296374440193176,0.7684461805555556,0.0006510416666666666,0.7651909722222222,0.7760416666666666,0.003921568859368563,1.0
1576,1.0,0.7819538712501526,0.5752451419830322,0.837175726890564,0.19276349246501923,0.22224442660808563,0.13775025308132172,0.6669111251831055,0.19700837135314941,0.3398497402667999,0.8707682291666666,0.0,0.7820095486111112,0.833984375,0.01568627543747425,1.0
1751,1.0,0.741963267326355,0.5276713967323303,0.8080081939697266,0.22232729196548462,0.23071080446243286,0.15437805652618408,0.6237030625343323,0.21381635963916779,0.37903013825416565,0.9024522569444444,0.0,0.6928168402777778,0.7303602430555556,0.019607843831181526,1.0
1784,1.0,0.7317482829093933,0.48708978295326233,0.794660210609436,0.23446686565876007,0.23589202761650085,0.16225625574588776,0.5953056812286377,0.2202654629945755,0.42295652627944946,0.9085286458333334,0.0,0.61328125,0.6684027777777778,0.03529411926865578,1.0
1856,1.0,0.7855720520019531,0.5624608993530273,0.8356115818023682,0.21562139689922333,0.2263432890176773,0.14843422174453735,0.6603102684020996,0.20774729549884796,0.35668236017227173,0.8799913194444444,0.0,0.5593532986111112,0.7914496527777778,0.019607843831181526,1.0
1938,1.0,0.7319350838661194,0.5133302211761475,0.8012629151344299,0.2149519920349121,0.22136616706848145,0.15104857087135315,0.6115173697471619,0.20564177632331848,0.3897846043109894,0.9080946180555556,0.0007595486111111111,0.77734375,0.7427300347222222,0.0,1.0
1943,1.0,0.7779518961906433,0.5227107405662537,0.8244587779045105,0.22238975763320923,0.23131753504276276,0.15437833964824677,0.633427083492279,0.21290214359760284,0.39928919076919556,0.8997395833333334,0.00043402777777777775,0.5169270833333334,0.740234375,0.0117647061124444,1.0
2019,1.0,0.7627995610237122,0.5531399250030518,0.8256778717041016,0.18132145702838898,0.21701329946517944,0.13005438446998596,0.6468974947929382,0.19034738838672638,0.3551657199859619,0.880859375,0.0,0.8345269097222222,0.8218315972222222,0.0313725508749485,1.0
2167,1.0,0.7600107192993164,0.5119370222091675,0.8141195774078369,0.2258593887090683,0.22644907236099243,0.15514710545539856,0.6205599308013916,0.21114592254161835,0.4031749963760376,0.9066840277777778,0.00010850694444444444,0.5635850694444444,0.724609375,0.019607843831181526,1.0
2325,1.0,0.7516412734985352,0.5526378154754639,0.8190129399299622,0.19310253858566284,0.21998706459999084,0.138130784034729,0.6425065994262695,0.1966192126274109,0.35263288021087646,0.8863932291666666,0.00010850694444444444,0.8296440972222222,0.8129340277777778,0.0117647061124444,1.0
2396,1.0,0.7323376536369324,0.5269246697425842,0.8036973476409912,0.21295751631259918,0.23358742892742157,0.15011316537857056,0.6198952198028564,0.21259742975234985,0.3766106367111206,0.8845486111111112,0.0,0.7708333333333334,0.7287326388888888,0.0235294122248888,1.0
2443,1.0,0.7749642729759216,0.5444163680076599,0.8270489573478699,0.22058258950710297,0.2324543595314026,0.1528526097536087,0.6455703377723694,0.2142830640077591,0.37476646900177,0.8893229166666666,0.00010850694444444444,0.5450303819444444,0.7527126736111112,0.0117647061124444,1.0
2566,1.0,0.777708888053894,0.5197657346725464,0.8246251344680786,0.21912892162799835,0.2221711277961731,0.150884211063385,0.6316446661949158,0.20603635907173157,0.40095213055610657,0.9123263888888888,0.00010850694444444444,0.5088975694444444,0.7540147569444444,0.0117647061124444,1.0
2615,1.0,0.6858384013175964,0.4510961174964905,0.7675397992134094,0.21875783801078796,0.21585994958877563,0.1509101837873459,0.5573586225509644,0.2023383527994156,0.4416300058364868,0.9227430555555556,0.00010850694444444444,0.7923177083333334,0.6228298611111112,0.01568627543747425,1.0
2827,1.0,0.7454925179481506,0.5018126964569092,0.8066027164459229,0.21215777099132538,0.2208738476037979,0.14719758927822113,0.609419047832489,0.20330509543418884,0.40770360827445984,0.9123263888888888,0.001736111111111111,0.6756727430555556,0.7095269097222222,0.003921568859368563,1.0
2893,1.0,0.6866775155067444,0.48685407638549805,0.7728915810585022,0.22386355698108673,0.23023991286754608,0.15873414278030396,0.579209566116333,0.2152521312236786,0.4045344293117523,0.9052734375,0.0015190972222222222,0.8465711805555556,0.6720920138888888,0.003921568859368563,1.0
3130,1.0,0.7758689522743225,0.5150258541107178,0.8239962458610535,0.20460906624794006,0.21772322058677673,0.14258207380771637,0.6282405257225037,0.19750447571277618,0.4027887284755707,0.9097222222222222,0.00010850694444444444,0.6338975694444444,0.7663845486111112,0.01568627543747425,1.0
3259,1.0,0.7188717126846313,0.5570240020751953,0.8021113872528076,0.20962810516357422,0.22967182099819183,0.14875942468643188,0.6333564519882202,0.21026980876922607,0.3367326557636261,0.8747829861111112,0.0,0.8589409722222222,0.7601996527777778,0.0313725508749485,1.0
3520,1.0,0.7248332500457764,0.5221137404441833,0.7989345788955688,0.21454857289791107,0.23189972341060638,0.15181893110275269,0.6142844557762146,0.21183690428733826,0.37794411182403564,0.8862847222222222,0.00010850694444444444,0.8228081597222222,0.7389322916666666,0.01568627543747425,1.0
3680,1.0,0.7718656063079834,0.5438764095306396,0.8290488123893738,0.17910155653953552,0.20769478380680084,0.12687839567661285,0.644554853439331,0.18245501816272736,0.36588573455810547,0.8888888888888888,0.00010850694444444444,0.8266059027777778,0.8466796875,0.0117647061124444,1.0
3832,1.0,0.7236907482147217,0.5040687918663025,0.7949486970901489,0.21832174062728882,0.23101960122585297,0.15432175993919373,0.6028960347175598,0.21265628933906555,0.39894354343414307,0.9001736111111112,0.00021701388888888888,0.7810329861111112,0.7106119791666666,0.0117647061124444,1.0
3841,1.0,0.7593822479248047,0.5372332334518433,0.819142758846283,0.21074524521827698,0.2230885773897171,0.14791275560855865,0.6357934474945068,0.20530204474925995,0.37397074699401855,0.9044053819444444,0.0,0.7252604166666666,0.7783203125,0.003921568859368563,1.0
3951,1.0,0.7298921942710876,0.49658310413360596,0.7959214448928833,0.2279059886932373,0.2324555367231369,0.15960414707660675,0.6004670262336731,0.216524139046669,0.4102765917778015,0.9079861111111112,0.0,0.716796875,0.6961805555555556,0.0313725508749485,1.0
3976,1.0,0.7264242172241211,0.5459895730018616,0.8028573989868164,0.21549683809280396,0.24467357993125916,0.15499266982078552,0.6292223930358887,0.2203148454427719,0.3549095690250397,0.8336588541666666,0.0,0.8544921875,0.7679036458333334,0.0235294122248888,1.0
3979,1.0,0.7275986075401306,0.49788904190063477,0.7968401312828064,0.21258923411369324,0.22185806930065155,0.14867304265499115,0.6006526350975037,0.20401005446910858,0.40474241971969604,0.9069010416666666,0.00021701388888888888,0.76953125,0.7262369791666666,0.0117647061124444,1.0
3983,1.0,0.6817700266838074,0.4900590479373932,0.7707852125167847,0.22685003280639648,0.23179534077644348,0.15996970236301422,0.5793834328651428,0.2175488919019699,0.39903390407562256,0.9057074652777778,0.0,0.8420138888888888,0.6667751736111112,0.0235294122248888,1.0
4039,1.0,0.8020816445350647,0.5483289957046509,0.8417811393737793,0.20887696743011475,0.22255508601665497,0.14456328749656677,0.6576545238494873,0.2025570124387741,0.3781835734844208,0.8996310763888888,0.00021701388888888888,0.4839409722222222,0.7926432291666666,0.019607843831181526,1.0
4107,1.0,0.7278096675872803,0.5230885744094849,0.8004510402679443,0.2146526277065277,0.22898350656032562,0.15252985060214996,0.6159195303916931,0.2105836123228073,0.37880122661590576,0.9019097222222222,0.0,0.8241102430555556,0.7401258680555556,0.019607843831181526,1.0
4135,1.0,0.6860889792442322,0.5471537113189697,0.7801079154014587,0.23636415600776672,0.2724456191062927,0.16859018802642822,0.6152521371841431,0.24526070058345795,0.34089553356170654,0.7800564236111112,0.0,0.8101128472222222,0.7077907986111112,0.0235294122248888,1.0
4207,1.0,0.7455725073814392,0.5144574046134949,0.8083435297012329,0.21867085993289948,0.22241850197315216,0.15033671259880066,0.6170638203620911,0.2069171816110611,0.3938440978527069,0.9066840277777778,0.00021701388888888888,0.65625,0.7314453125,0.0117647061124444,1.0
4324,1.0,0.7906544208526611,0.5453699231147766,0.83528733253479,0.21648314595222473,0.2250610738992691,0.1489885002374649,0.6517606377601624,0.20711348950862885,0.3775777816772461,0.8969184027777778,0.0006510416666666666,0.5011935763888888,0.7797309027777778,0.0117647061124444,1.0
4656,1.0,0.7525348663330078,0.5481954216957092,0.8162011504173279,0.20671074092388153,0.27905985713005066,0.14853395521640778,0.6398454904556274,0.23572275042533875,0.3650553524494171,0.7505425347222222,0.0003255208333333333,0.7642144097222222,0.7386067708333334,0.007843137718737125,1.0
4708,1.0,0.7653216123580933,0.5580299496650696,0.8254204392433167,0.2044694423675537,0.23692743480205536,0.14513973891735077,0.6504927277565002,0.211111918091774,0.3550657033920288,0.8495008680555556,0.0,0.7596571180555556,0.7829861111111112,0.019607843831181526,1.0
4846,1.0,0.700415313243866,0.5409594774246216,0.7853460311889648,0.23808073997497559,0.2904883921146393,0.17195969820022583,0.6164968013763428,0.256509006023407,0.35846763849258423,0.7508680555555556,0.00010850694444444444,0.8567708333333334,0.6804470486111112,0.0117647061124444,1.0
4859,1.0,0.6440640687942505,0.427982896566391,0.7405250072479248,0.22348731756210327,0.22240035235881805,0.15788480639457703,0.5282209515571594,0.2090834230184555,0.4552944004535675,0.9182942708333334,0.0,0.8785807291666666,0.5775824652777778,0.03529411926865578,1.0
4866,1.0,0.7766484618186951,0.5128838419914246,0.8226634860038757,0.2215564250946045,0.22319716215133667,0.15243539214134216,0.6270643472671509,0.2069982886314392,0.4076772928237915,0.9131944444444444,0.00010850694444444444,0.5173611111111112,0.748046875,0.0117647061124444,1.0
4873,1.0,0.6843740940093994,0.50276118516922,0.775065541267395,0.22227351367473602,0.22631977498531342,0.1549261510372162,0.5881061553955078,0.2119724154472351,0.3827701807022095,0.8986545138888888,0.0,0.8404947916666666,0.6806640625,0.0313725508749485,1.0
4892,1.0,0.7275267243385315,0.4922713041305542,0.7960448861122131,0.20991674065589905,0.21818941831588745,0.14757183194160461,0.5972428917884827,0.2009650468826294,0.4104594588279724,0.9143880208333334,0.0,0.8006727430555556,0.7280815972222222,0.019607843831181526,1.0
4898,1.0,0.7221733331680298,0.5366179347038269,0.8019884824752808,0.19311094284057617,0.22174420952796936,0.13793335855007172,0.6223512887954712,0.1973986178636551,0.3575194776058197,0.8767361111111112,0.0,0.8917100694444444,0.7998046875,0.0235294122248888,1.0
4923,1.0,0.6942755579948425,0.4837154746055603,0.7770093083381653,0.2172839492559433,0.227680504322052,0.15338896214962006,0.5801084041595459,0.21044741570949554,0.40971270203590393,0.9025607638888888,0.00043402777777777775,0.8445095486111112,0.6783854166666666,0.007843137718737125,1.0
4943,1.0,0.7356358170509338,0.48671114444732666,0.7969290614128113,0.22977642714977264,0.23055234551429749,0.160202294588089,0.5965044498443604,0.2153114229440689,0.4230794310569763,0.9106987847222222,0.00043402777777777775,0.6706814236111112,0.6925998263888888,0.0117647061124444,1.0
4966,1.0,0.739544153213501,0.504827082157135,0.8015577793121338,0.23103076219558716,0.23940962553024292,0.16223183274269104,0.6088348031044006,0.22209329903125763,0.4068896770477295,0.8978949652777778,0.0009765625,0.654296875,0.6986762152777778,0.0117647061124444,1.0
5021,1.0,0.7857120037078857,0.5386195182800293,0.8307985663414001,0.2232498675584793,0.23304755985736847,0.15455472469329834,0.6458085775375366,0.21416878700256348,0.384487509727478,0.8922526041666666,0.00043402777777777775,0.4932725694444444,0.7533637152777778,0.0117647061124444,1.0
5055,1.0,0.7373200058937073,0.5117084980010986,0.8040832877159119,0.21010683476924896,0.22729192674160004,0.1473148614168167,0.612497091293335,0.20676128566265106,0.39392149448394775,0.8962673611111112,0.00010850694444444444,0.7533637152777778,0.728515625,0.007843137718737125,1.0
5080,1.0,0.8055393695831299,0.5607179403305054,0.8473137617111206,0.19144879281520844,0.2089550644159317,0.13208705186843872,0.6665915250778198,0.1882822960615158,0.3637056350708008,0.8999565972222222,0.0,0.5217013888888888,0.8407118055555556,0.0117647061124444,1.0
5081,1.0,0.790014386177063,0.6014050841331482,0.8449938297271729,0.20070451498031616,0.22072573006153107,0.1411212533712387,0.6855683922767639,0.2015155404806137,0.31595003604888916,0.8709852430555556,0.0,0.7138671875,0.8359375,0.0117647061124444,1.0
5122,1.0,0.6929423809051514,0.49386489391326904,0.7781569361686707,0.2156098186969757,0.23076018691062927,0.15234529972076416,0.5857983827590942,0.21158772706985474,0.3972867727279663,0.8887803819444444,0.00010850694444444444,0.8659939236111112,0.6783854166666666,0.01568627543747425,1.0
5318,1.0,0.7470580339431763,0.5617923736572266,0.8183997869491577,0.19201955199241638,0.22598358988761902,0.13558314740657806,0.6464400291442871,0.1988646388053894,0.3392799496650696,0.8508029513888888,0.0,0.8546006944444444,0.8009982638888888,0.019607843831181526,1.0
5348,1.0,0.7224018573760986,0.5368187427520752,0.7981209754943848,0.23278141021728516,0.24477967619895935,0.16435633599758148,0.6220965385437012,0.22847159206867218,0.36650294065475464,0.8830295138888888,0.0,0.7059461805555556,0.7242838541666666,0.027450980618596077,1.0
5400,1.0,0.6892318725585938,0.5063283443450928,0.7786386013031006,0.21139895915985107,0.2340816855430603,0.14935527741909027,0.592059850692749,0.21118180453777313,0.3808974027633667,0.8682725694444444,0.00010850694444444444,0.8728298611111112,0.7169053819444444,0.019607843831181526,1.0
5482,1.0,0.6696699857711792,0.4839073717594147,0.7635782957077026,0.22027719020843506,0.22953669726848602,0.15636275708675385,0.5713328719139099,0.21332892775535583,0.40042489767074585,0.9031032986111112,0.0,0.8809678819444444,0.6633029513888888,0.01568627543747425,1.0
5512,1.0,0.7173504829406738,0.5162917971611023,0.7925261855125427,0.2384159117937088,0.2312467098236084,0.16392932832241058,0.6078990697860718,0.2204502373933792,0.3821141719818115,0.9070095486111112,0.0,0.7019314236111112,0.6946614583333334,0.03529411926865578,1.0
5530,1.0,0.7755770087242126,0.5174305438995361,0.8216269016265869,0.2307322919368744,0.2357621043920517,0.15912756323814392,0.6292946338653564,0.2183115929365158,0.4058781862258911,0.9020182291666666,0.0003255208333333333,0.4536675347222222,0.7101779513888888,0.007843137718737125,1.0
5551,1.0,0.7780118584632874,0.557165801525116,0.8305006623268127,0.21718859672546387,0.2359202802181244,0.15226779878139496,0.6543589234352112,0.2152734100818634,0.3623688817024231,0.8745659722222222,0.00021701388888888888,0.6090494791666666,0.7692057291666666,0.007843137718737125,1.0
5562,1.0,0.7565755248069763,0.5307202339172363,0.814211905002594,0.23273533582687378,0.24018940329551697,0.16263441741466522,0.6305690407752991,0.2232721447944641,0.3848096430301666,0.8905164930555556,0.0022786458333333335,0.5808376736111112,0.7248263888888888,0.0,1.0
5655,1.0,0.7756931781768799,0.6429036259651184,0.8378417491912842,0.2333848923444748,0.3093704283237457,0.17127548158168793,0.7048306465148926,0.2670151889324188,0.2814461290836334,0.6015625,0.0005425347222222222,0.7980685763888888,0.7887369791666666,0.003921568859368563,1.0
5657,1.0,0.7406760454177856,0.4948814809322357,0.8016374111175537,0.2273610383272171,0.22860996425151825,0.15579436719417572,0.603344202041626,0.21310631930828094,0.4158009886741638,0.9052734375,0.0,0.5920138888888888,0.6867404513888888,0.0313725508749485,1.0
5836,1.0,0.76698237657547,0.5095946192741394,0.8180044889450073,0.21521157026290894,0.221700519323349,0.1487075835466385,0.6217122673988342,0.20422185957431793,0.40725404024124146,0.91015625,0.0,0.5887586805555556,0.7408854166666666,0.0117647061124444,1.0
5837,1.0,0.7315244674682617,0.529747486114502,0.8044657707214355,0.2077527493238449,0.22327686846256256,0.14583441615104675,0.6213967204093933,0.20359444618225098,0.36976420879364014,0.8904079861111112,0.0,0.8400607638888888,0.7607421875,0.019607843831181526,1.0
5934,1.0,0.800171971321106,0.5460379719734192,0.8391411900520325,0.22156071662902832,0.23207876086235046,0.1524525135755539,0.6554377675056458,0.21273173391819,0.38252124190330505,0.896484375,0.00010850694444444444,0.4027777777777778,0.7561848958333334,0.01568627543747425,1.0
5974,1.0,0.717731237411499,0.4854736924171448,0.7900229096412659,0.2126295417547226,0.22004054486751556,0.1477770209312439,0.5896373987197876,0.20302079617977142,0.41470447182655334,0.9124348958333334,0.0,0.7798394097222222,0.6934678819444444,0.0235294122248888,1.0
6007,1.0,0.7896203398704529,0.5403803586959839,0.8336524963378906,0.21720102429389954,0.2251986712217331,0.15109029412269592,0.6483361721038818,0.20771494507789612,0.38291364908218384,0.9041883680555556,0.0,0.5390625,0.771484375,0.019607843831181526,1.0
6100,1.0,0.6929793953895569,0.4956890642642975,0.7774693369865417,0.22774536907672882,0.2320016771554947,0.15958303213119507,0.5868018269538879,0.2177744060754776,0.3973720073699951,0.9095052083333334,0.00021701388888888888,0.7890625,0.6628689236111112,0.007843137718737125,1.0
6140,1.0,0.7246549129486084,0.4873162508010864,0.7930517792701721,0.2231963574886322,0.2230490744113922,0.1525096744298935,0.593134343624115,0.20813196897506714,0.4157579243183136,0.9113498263888888,0.00010850694444444444,0.6840277777777778,0.6764322916666666,0.0117647061124444,1.0
6167,1.0,0.7515854835510254,0.5121667981147766,0.8095669746398926,0.22660380601882935,0.2334289252758026,0.1573086977005005,0.6176565885543823,0.21620996296405792,0.4011375308036804,0.9024522569444444,0.0,0.6202256944444444,0.7180989583333334,0.019607843831181526,1.0
6264,1.0,0.7573984861373901,0.5012400150299072,0.8127472400665283,0.20928935706615448,0.2153787612915039,0.14410874247550964,0.6133431792259216,0.19780385494232178,0.4110071659088135,0.9128689236111112,0.0005425347222222222,0.6396484375,0.7389322916666666,0.0117647061124444,1.0
6374,1.0,0.7130297422409058,0.4767165184020996,0.7826001644134521,0.2432081699371338,0.23558762669563293,0.16838672757148743,0.5822449922561646,0.2237137258052826,0.4278777837753296,0.9113498263888888,0.0,0.6578776041666666,0.6475694444444444,0.0235294122248888,1.0
6423,1.0,0.6819576621055603,0.44244876503944397,0.7642889022827148,0.21201738715171814,0.2091355174779892,0.14926280081272125,0.5507516860961914,0.19627271592617035,0.4496750831604004,0.9264322916666666,0.00021701388888888888,0.857421875,0.6641710069444444,0.003921568859368563,1.0
6426,1.0,0.7945057153701782,0.546951174736023,0.8365554213523865,0.22388391196727753,0.22752101719379425,0.15434373915195465,0.6539848446846008,0.21118681132793427,0.37898796796798706,0.9012586805555556,0.0015190972222222222,0.4248046875,0.7659505208333334,0.0,1.0
6442,1.0,0.7441712617874146,0.552910566329956,0.8127208352088928,0.21926119923591614,0.24110300838947296,0.15603375434875488,0.6397159099578857,0.22034622728824615,0.3549745976924896,0.8732638888888888,0.0,0.7605251736111112,0.7532552083333334,0.01568627543747425,1.0
6470,1.0,0.752204179763794,0.5300695896148682,0.812709391117096,0.22662444412708282,0.23791635036468506,0.1581857055425644,0.6287087202072144,0.21957692503929138,0.38244935870170593,0.8846571180555556,0.0,0.6365017361111112,0.7354600694444444,0.0313725508749485,1.0
6488,1.0,0.7397701740264893,0.5297402739524841,0.8080499172210693,0.21086610853672028,0.22989489138126373,0.14868620038032532,0.624266505241394,0.20928478240966797,0.3751092553138733,0.8859592013888888,0.00021701388888888888,0.7785373263888888,0.7455512152777778,0.007843137718737125,1.0
6636,1.0,0.7032709121704102,0.4630335569381714,0.7792760729789734,0.2100359946489334,0.21225400269031525,0.1461276412010193,0.5709162354469299,0.19755493104457855,0.4342038035392761,0.9243706597222222,0.00021701388888888888,0.7979600694444444,0.6625434027777778,0.007843137718737125,1.0
6749,1.0,0.7257216572761536,0.48676598072052,0.7907114028930664,0.24328768253326416,0.2364087849855423,0.1682673990726471,0.5928635001182556,0.22417597472667694,0.4216287136077881,0.9083116319444444,0.0,0.6185980902777778,0.6668836805555556,0.0235294122248888,1.0
6797,1.0,0.7321465015411377,0.5355689525604248,0.8038704991340637,0.23011915385723114,0.23015272617340088,0.1592129021883011,0.624932050704956,0.2174256443977356,0.3665693402290344,0.9027777777777778,0.00010850694444444444,0.7240668402777778,0.7185329861111112,0.019607843831181526,1.0
6807,1.0,0.7851779460906982,0.541212260723114,0.8315879106521606,0.21776267886161804,0.22734685242176056,0.15125389397144318,0.6472607851028442,0.20928965508937836,0.380686491727829,0.8997395833333334,0.0007595486111111111,0.5414496527777778,0.76953125,0.007843137718737125,1.0
6809,1.0,0.7032841444015503,0.44272366166114807,0.7754080891609192,0.21283060312271118,0.21118992567062378,0.14640946686267853,0.5585572719573975,0.1964542418718338,0.45674949884414673,0.9231770833333334,0.0,0.7674696180555556,0.6321614583333334,0.0235294122248888,1.0
6850,1.0,0.7539768815040588,0.5169883966445923,0.8134872317314148,0.20789191126823425,0.22107897698879242,0.1453523337841034,0.6216488480567932,0.20178340375423431,0.39297908544540405,0.904296875,0.00010850694444444444,0.7335069444444444,0.7682291666666666,0.01568627543747425,1.0
6869,1.0,0.7234548926353455,0.5249820947647095,0.7974149584770203,0.23258015513420105,0.23255695402622223,0.1617470234632492,0.6153829097747803,0.21991263329982758,0.37599197030067444,0.8974609375,0.0,0.7271050347222222,0.71875,0.027450980618596077,1.0
6907,1.0,0.7500331997871399,0.5140178203582764,0.8104562759399414,0.21843843162059784,0.22100162506103516,0.15040786564350128,0.6183803677558899,0.2056906521320343,0.39542239904403687,0.9067925347222222,0.0,0.6592881944444444,0.7395833333333334,0.0235294122248888,1.0
7124,1.0,0.7369263768196106,0.4849388301372528,0.7976337671279907,0.22834518551826477,0.22115498781204224,0.15914911031723022,0.5959303379058838,0.20947420597076416,0.42446327209472656,0.9206814236111112,0.0009765625,0.6704644097222222,0.7084418402777778,0.0,1.0
7575,1.0,0.7581286430358887,0.5286722183227539,0.8168542385101318,0.21240265667438507,0.23080797493457794,0.14845353364944458,0.6301324367523193,0.20966589450836182,0.3838019371032715,0.8845486111111112,0.0006510416666666666,0.6843532986111112,0.7445746527777778,0.007843137718737125,1.0
7607,1.0,0.7681760191917419,0.6132493615150452,0.831803560256958,0.2244470864534378,0.2906002402305603,0.1624542474746704,0.6844875812530518,0.2513941824436188,0.305223286151886,0.681640625,0.00010850694444444444,0.7048611111111112,0.7868923611111112,0.0117647061124444,1.0
7759,1.0,0.8008310794830322,0.5561691522598267,0.84260493516922,0.20853476226329803,0.21869803965091705,0.14436477422714233,0.6619767546653748,0.2008507251739502,0.3690793812274933,0.9040798611111112,0.0007595486111111111,0.4986979166666667,0.8054470486111112,0.007843137718737125,1.0
7926,1.0,0.7350975275039673,0.480591356754303,0.7954108715057373,0.23706063628196716,0.2266542762517929,0.16185081005096436,0.592578113079071,0.21528221666812897,0.4300171732902527,0.9216579861111112,0.0003255208333333333,0.5666232638888888,0.6694878472222222,0.01568627543747425,1.0
8178,1.0,0.7609536647796631,0.5332477688789368,0.8192172646522522,0.21250459551811218,0.2231689989566803,0.14847725629806519,0.63393235206604,0.20578423142433167,0.3788052499294281,0.9020182291666666,0.0,0.7030164930555556,0.7622612847222222,0.019607843831181526,1.0
8364,1.0,0.6880885362625122,0.4459916353225708,0.7666406631469727,0.22743311524391174,0.22013232111930847,0.15733732283115387,0.5549325942993164,0.20831678807735443,0.4503389894962311,0.9261067708333334,0.0,0.7534722222222222,0.61328125,0.0235294122248888,1.0
8409,1.0,0.7757186889648438,0.5358009338378906,0.8278765082359314,0.20279403030872345,0.2144404947757721,0.14104865491390228,0.6408329010009766,0.19619041681289673,0.3796955943107605,0.9073350694444444,0.00010850694444444444,0.6558159722222222,0.7962239583333334,0.0117647061124444,1.0
8450,1.0,0.7460877895355225,0.5699069499969482,0.816878616809845,0.21015164256095886,0.24336011707782745,0.1510932445526123,0.650739848613739,0.21813467144966125,0.336140513420105,0.8389756944444444,0.00021701388888888888,0.8215060763888888,0.7787543402777778,0.01568627543747425,1.0
8588,1.0,0.7636906504631042,0.5048283934593201,0.8153224587440491,0.22081954777240753,0.2162570208311081,0.15228760242462158,0.6176245212554932,0.2035997211933136,0.4113451838493347,0.9211154513888888,0.0,0.5889756944444444,0.7489149305555556,0.019607843831181526,1.0
8597,1.0,0.7493608593940735,0.5677913427352905,0.8181504607200623,0.21087214350700378,0.24595458805561066,0.1516662836074829,0.6506215929985046,0.22045433521270752,0.34084808826446533,0.833984375,0.00043402777777777775,0.8256293402777778,0.7676866319444444,0.007843137718737125,1.0
8659,1.0,0.6811296343803406,0.49241340160369873,0.7689219117164612,0.23811309039592743,0.2500506341457367,0.16964535415172577,0.5803616046905518,0.23371386528015137,0.40200337767601013,0.8919270833333334,0.00021701388888888888,0.8002387152777778,0.6300998263888888,0.0117647061124444,1.0
8668,1.0,0.750608503818512,0.5163807272911072,0.8110077381134033,0.2165682464838028,0.2275124192237854,0.15023107826709747,0.6200023293495178,0.2093314677476883,0.39430972933769226,0.9008246527777778,0.00021701388888888888,0.6711154513888888,0.7329644097222222,0.01568627543747425,1.0
8741,1.0,0.7235893607139587,0.506272554397583,0.7954252362251282,0.22054395079612732,0.2313680797815323,0.15423238277435303,0.6042137145996094,0.2137102633714676,0.3956608474254608,0.9027777777777778,0.0003255208333333333,0.7626953125,0.7076822916666666,0.01568627543747425,1.0
8796,1.0,0.6930248737335205,0.4637135863304138,0.7728796601295471,0.21836842596530914,0.22005917131900787,0.15337499976158142,0.5675227046012878,0.2054101675748825,0.4313652515411377,0.9217664930555556,0.0,0.8182508680555556,0.6587456597222222,0.0117647061124444,1.0
8899,1.0,0.7788301110267639,0.533626139163971,0.828069269657135,0.2124180942773819,0.22083185613155365,0.14696691930294037,0.6405085921287537,0.20340943336486816,0.3848842978477478,0.9065755208333334,0.00021701388888888888,0.5913628472222222,0.7745225694444444,0.019607843831181526,1.0
9024,1.0,0.6956393122673035,0.47762244939804077,0.7779548168182373,0.20491494238376617,0.21919257938861847,0.14514419436454773,0.5770473480224609,0.20039911568164825,0.4156024754047394,0.9130859375,0.00021701388888888888,0.859375,0.6807725694444444,0.01568627543747425,1.0
9130,1.0,0.7561994194984436,0.5445303916931152,0.8167569041252136,0.23325258493423462,0.23526039719581604,0.16064849495887756,0.6388532519340515,0.2210758924484253,0.36746302247047424,0.8905164930555556,0.00021701388888888888,0.6010199652777778,0.7368706597222222,0.019607843831181526,1.0
9209,1.0,0.755463719367981,0.5081490874290466,0.8115876913070679,0.2183566689491272,0.225046768784523,0.15284761786460876,0.6166881322860718,0.2082521617412567,0.40509477257728577,0.9044053819444444,0.0008680555555555555,0.6801215277777778,0.7338324652777778,0.003921568859368563,1.0
9305,1.0,0.7317866086959839,0.48372185230255127,0.7944201231002808,0.23417995870113373,0.22546719014644623,0.16179156303405762,0.5933127999305725,0.21423478424549103,0.42487624287605286,0.9231770833333334,0.0,0.6396484375,0.6793619791666666,0.027450980618596077,1.0
9385,1.0,0.7637467384338379,0.5698269605636597,0.8250847458839417,0.2142637073993683,0.24375124275684357,0.15456154942512512,0.656908392906189,0.22047902643680573,0.34454476833343506,0.8478732638888888,0.0,0.7897135416666666,0.7940538194444444,0.0117647061124444,1.0
9388,1.0,0.7629004716873169,0.5193274617195129,0.816816508769989,0.22114257514476776,0.2284027338027954,0.15374475717544556,0.6260694861412048,0.21054023504257202,0.3960571587085724,0.9006076388888888,0.0014105902777777778,0.6022135416666666,0.7401258680555556,0.003921568859368563,1.0
9451,1.0,0.7118004560470581,0.49249812960624695,0.7862690091133118,0.22891901433467865,0.23366492986679077,0.15964846312999725,0.5915594100952148,0.2181134819984436,0.4085465371608734,0.9067925347222222,0.0,0.7350260416666666,0.6677517361111112,0.019607843831181526,1.0
9520,1.0,0.7904190421104431,0.5505659580230713,0.8353248238563538,0.22176037728786469,0.2314508855342865,0.15318699181079865,0.654744565486908,0.2131452113389969,0.37370479106903076,0.8947482638888888,0.0,0.4833984375,0.7705078125,0.019607843831181526,1.0
9600,1.0,0.7495383024215698,0.5063780546188354,0.8071720600128174,0.2298690229654312,0.2361047863960266,0.15950952470302582,0.6133735179901123,0.2189544439315796,0.40789732336997986,0.9027777777777778,0.0007595486111111111,0.5845269097222222,0.7007378472222222,0.003921568859368563,1.0
9718,1.0,0.6898136138916016,0.47051969170570374,0.7721137404441833,0.2182094305753708,0.2301127016544342,0.1544424593448639,0.5704703330993652,0.21148446202278137,0.42373350262641907,0.90234375,0.0,0.8401692708333334,0.6671006944444444,0.019607843831181526,1.0
9719,1.0,0.7953898906707764,0.5819504261016846,0.8423717021942139,0.2187540978193283,0.23251742124557495,0.1544010043144226,0.6754568219184875,0.2137380987405777,0.34217169880867004,0.876953125,0.00010850694444444444,0.5740017361111112,0.8058810763888888,0.01568627543747425,1.0
9753,1.0,0.7156139612197876,0.5414551496505737,0.7991855144500732,0.20059463381767273,0.21589824557304382,0.14288006722927094,0.6229099035263062,0.19910016655921936,0.35057786107063293,0.9034288194444444,0.0,0.8787977430555556,0.7836371527777778,0.03529411926865578,1.0
9765,1.0,0.7439172863960266,0.4917815625667572,0.8022275567054749,0.22934593260288239,0.22657573223114014,0.15867894887924194,0.6025609970092773,0.2126646190881729,0.4197534918785095,0.9143880208333334,0.0,0.6412760416666666,0.7119140625,0.0235294122248888,1.0
9767,1.0,0.6970899105072021,0.47773313522338867,0.7763914465904236,0.22638186812400818,0.23348385095596313,0.15839040279388428,0.5773678421974182,0.2162056267261505,0.4187740087509155,0.9001736111111112,0.0,0.7822265625,0.6529947916666666,0.0235294122248888,1.0
9917,1.0,0.7611958384513855,0.5347707271575928,0.820110023021698,0.2007557898759842,0.22487083077430725,0.14306914806365967,0.635000467300415,0.20204325020313263,0.37684115767478943,0.8873697916666666,0.002387152777777778,0.7574869791666666,0.7757161458333334,0.0,1.0
9919,1.0,0.6888186931610107,0.49789366126060486,0.7746987342834473,0.22540855407714844,0.2506236135959625,0.16243572533130646,0.5865360498428345,0.228048175573349,0.39669832587242126,0.8657769097222222,0.0,0.8636067708333334,0.6688368055555556,0.027450980618596077,1.0
9926,1.0,0.7418572902679443,0.5626668334007263,0.8150212168693542,0.19811098277568817,0.23674465715885162,0.14232997596263885,0.645013153553009,0.20938383042812347,0.3402906358242035,0.8382161458333334,0.0009765625,0.8404947916666666,0.7886284722222222,0.007843137718737125,1.0
9927,1.0,0.7115944623947144,0.5432568192481995,0.7960375547409058,0.2077919989824295,0.23352274298667908,0.14979691803455353,0.6224068403244019,0.2122737318277359,0.3507627248764038,0.8703342013888888,0.0,0.8797743055555556,0.7606336805555556,0.019607843831181526,1.0
9946,1.0,0.75248122215271,0.539549708366394,0.8162096738815308,0.21213823556900024,0.22404849529266357,0.14758536219596863,0.6347554922103882,0.20612961053848267,0.36826756596565247,0.8958333333333334,0.00010850694444444444,0.7351345486111112,0.7582465277777778,0.01568627543747425,1.0
9978,1.0,0.7234298586845398,0.49852097034454346,0.794830858707428,0.21310994029045105,0.22270219027996063,0.1494104266166687,0.5995480418205261,0.2054828256368637,0.4029061496257782,0.9048394097222222,0.0,0.7907986111111112,0.7229817708333334,0.027450980618596077,1.0
10107,1.0,0.8099626302719116,0.5400020480155945,0.8426474928855896,0.222282275557518,0.2250548154115677,0.15377534925937653,0.6552218198776245,0.2082284688949585,0.39219215512275696,0.9103732638888888,0.0010850694444444445,0.3492838541666667,0.7723524305555556,0.003921568859368563,1.0
10129,1.0,0.7569686770439148,0.5296810865402222,0.8160935044288635,0.2188938409090042,0.2291901707649231,0.15127119421958923,0.6302911043167114,0.21086575090885162,0.3816811740398407,0.8862847222222222,0.0,0.6688368055555556,0.73828125,0.027450980618596077,1.0
10174,1.0,0.7352098822593689,0.5147088170051575,0.8034318089485168,0.2117229551076889,0.22416500747203827,0.14845147728919983,0.6135530471801758,0.2058107852935791,0.38919851183891296,0.9021267361111112,0.0,0.7919921875,0.7409939236111112,0.027450980618596077,1.0
10206,1.0,0.7533063292503357,0.48650896549224854,0.8085507154464722,0.20835161209106445,0.20853355526924133,0.14255474507808685,0.6029941439628601,0.19335556030273438,0.42513883113861084,0.9253472222222222,0.0,0.6387803819444444,0.7251519097222222,0.027450980618596077,1.0
10274,1.0,0.7953052520751953,0.5528722405433655,0.8387531042098999,0.2139732390642166,0.2259332239627838,0.14833171665668488,0.6579501032829285,0.20685061812400818,0.37167373299598694,0.8951822916666666,0.0010850694444444445,0.4950086805555556,0.7855902777777778,0.0117647061124444,1.0
10324,1.0,0.7298751473426819,0.5319857597351074,0.8049142956733704,0.19416208565235138,0.21795980632305145,0.13944748044013977,0.6222684979438782,0.19620154798030853,0.36689600348472595,0.8989800347222222,0.0,0.8600260416666666,0.7958984375,0.0235294122248888,1.0
10403,1.0,0.726334810256958,0.5201831459999084,0.7998889088630676,0.20763199031352997,0.22872811555862427,0.14814326167106628,0.6137089729309082,0.20765921473503113,0.38123735785484314,0.8910590277777778,0.0005425347222222222,0.8273654513888888,0.7439236111111112,0.0117647061124444,1.0
10561,1.0,0.8028484582901001,0.5758264064788818,0.8470877408981323,0.2023460865020752,0.22182397544384003,0.1407701075077057,0.6746297478675842,0.20059961080551147,0.3480125665664673,0.8805338541666666,0.0,0.5724826388888888,0.8258463541666666,0.0235294122248888,1.0
10685,1.0,0.7439920902252197,0.4967380166053772,0.8018654584884644,0.24326448142528534,0.2336834818124771,0.16629843413829803,0.6054515242576599,0.22225651144981384,0.41668638586997986,0.9133029513888888,0.0,0.5179036458333334,0.673828125,0.0313725508749485,1.0
10686,1.0,0.6974217891693115,0.47505447268486023,0.7763386964797974,0.22199253737926483,0.22754348814487457,0.1575089991092682,0.5758887529373169,0.21192581951618195,0.4219907522201538,0.9153645833333334,0.00043402777777777775,0.8102213541666666,0.6761067708333334,0.003921568859368563,1.0
10758,1.0,0.8876119256019592,0.8189593553543091,0.9181593656539917,0.1961812674999237,0.2679087817668915,0.1465383768081665,0.8507952094078064,0.22976583242416382,0.1421625167131424,0.2906901041666667,0.0,0.7477213541666666,0.8912760416666666,0.027450980618596077,1.0
10824,1.0,0.7431163787841797,0.4821836054325104,0.8012884259223938,0.22082863748073578,0.21461838483810425,0.15204845368862152,0.596580445766449,0.20182761549949646,0.42755669355392456,0.92578125,0.0003255208333333333,0.6686197916666666,0.7072482638888888,0.01568627543747425,1.0
10848,1.0,0.7367145419120789,0.47218990325927734,0.7949572205543518,0.23420870304107666,0.22018158435821533,0.16068997979164124,0.5880782604217529,0.20978187024593353,0.4384326636791229,0.9264322916666666,0.0,0.6019965277777778,0.6884765625,0.0235294122248888,1.0
10938,1.0,0.7455874085426331,0.5131344199180603,0.807473361492157,0.22245997190475464,0.23054513335227966,0.1532473862171173,0.6161925196647644,0.21273133158683777,0.39666083455085754,0.8989800347222222,0.0,0.6362847222222222,0.7090928819444444,0.03529411926865578,1.0
10953,1.0,0.6969571709632874,0.5297543406486511,0.7861685752868652,0.21731609106063843,0.22774916887283325,0.15330184996128082,0.6089791059494019,0.21205931901931763,0.3580983877182007,0.8899739583333334,0.00021701388888888888,0.8659939236111112,0.7164713541666666,0.0117647061124444,1.0
11068,1.0,0.6765868067741394,0.46934571862220764,0.7631102204322815,0.22864511609077454,0.258029580116272,0.16335326433181763,0.5648000240325928,0.23134028911590576,0.4238589107990265,0.8425564236111112,0.0,0.8515625,0.6419270833333334,0.03529411926865578,1.0
11180,1.0,0.7746642231941223,0.5334805846214294,0.8250476717948914,0.21927236020565033,0.23057350516319275,0.15274754166603088,0.6388331055641174,0.21218669414520264,0.38581594824790955,0.8994140625,0.0,0.5774739583333334,0.7548828125,0.0235294122248888,1.0
11221,1.0,0.7299074530601501,0.5179759860038757,0.8006633520126343,0.22336241602897644,0.22335374355316162,0.15445572137832642,0.6135699152946472,0.21006321907043457,0.3838760256767273,0.9104817708333334,0.0,0.7368706597222222,0.7200520833333334,0.019607843831181526,1.0
11283,1.0,0.7147510051727295,0.4776705503463745,0.7877519130706787,0.20733430981636047,0.21372535824775696,0.1444229930639267,0.583906888961792,0.19691334664821625,0.4207848608493805,0.9144965277777778,0.0,0.8212890625,0.7006293402777778,0.0313725508749485,1.0
11394,1.0,0.710651159286499,0.4908343553543091,0.785696268081665,0.22623997926712036,0.2307770550251007,0.15824592113494873,0.5901738405227661,0.21552413702011108,0.4094853401184082,0.9092881944444444,0.0013020833333333333,0.7426215277777778,0.6716579861111112,0.0117647061124444,1.0
11460,1.0,0.7767340540885925,0.5624808669090271,0.8311015367507935,0.21634165942668915,0.23239655792713165,0.1500624418258667,0.6571652889251709,0.2123967856168747,0.35502371191978455,0.8719618055555556,0.001953125,0.568359375,0.7772352430555556,0.007843137718737125,1.0
11503,1.0,0.7623867988586426,0.526443362236023,0.8169109225273132,0.22930000722408295,0.23600435256958008,0.1585572063922882,0.6301038265228271,0.21854257583618164,0.3897723853588104,0.8908420138888888,0.0014105902777777778,0.5443793402777778,0.7258029513888888,0.007843137718737125,1.0
11616,1.0,0.7425220012664795,0.4823487102985382,0.8003894090652466,0.2261590212583542,0.21953561902046204,0.15625594556331635,0.5963971614837646,0.20737212896347046,0.42917224764823914,0.92578125,0.0,0.6261935763888888,0.7007378472222222,0.019607843831181526,1.0
11649,1.0,0.7338402271270752,0.5293790698051453,0.8088755011558533,0.17298683524131775,0.19971123337745667,0.12284211814403534,0.62237548828125,0.17619946599006653,0.366578072309494,0.9047309027777778,0.00043402777777777775,0.8936631944444444,0.8307291666666666,0.0117647061124444,1.0
11691,1.0,0.7286343574523926,0.4845946133136749,0.7930006980895996,0.23328056931495667,0.2322172373533249,0.16102634370326996,0.5927207469940186,0.21777217090129852,0.42386966943740845,0.9126519097222222,0.0,0.6268446180555556,0.6648220486111112,0.019607843831181526,1.0
11757,1.0,0.7667760252952576,0.5405833125114441,0.8227660655975342,0.21547622978687286,0.23026110231876373,0.15058264136314392,0.640383780002594,0.21090823411941528,0.3744644820690155,0.8926866319444444,0.0,0.6534288194444444,0.7685546875,0.027450980618596077,1.0
11891,1.0,0.7372885346412659,0.48908165097236633,0.7991650700569153,0.22420401871204376,0.22522598505020142,0.15426741540431976,0.5986449718475342,0.20944622159004211,0.41991594433784485,0.9141710069444444,0.0007595486111111111,0.6332465277777778,0.6804470486111112,0.01568627543747425,1.0
11913,1.0,0.7761344313621521,0.5645663738250732,0.831807017326355,0.20989379286766052,0.23115690052509308,0.1463613063097,0.6582906246185303,0.21038027107715607,0.3523349165916443,0.8746744791666666,0.0,0.6241319444444444,0.7930772569444444,0.0235294122248888,1.0
11920,1.0,0.7218396663665771,0.4910517930984497,0.7916514277458191,0.22661572694778442,0.22828157246112823,0.1566113829612732,0.5943257808685303,0.2135321944952011,0.4124591052532196,0.9116753472222222,0.0,0.7013888888888888,0.6805555555555556,0.0235294122248888,1.0
12253,1.0,0.6904590129852295,0.48254188895225525,0.7749272584915161,0.21176381409168243,0.22969108819961548,0.1514986753463745,0.5780410170555115,0.20894677937030792,0.4097931683063507,0.8976779513888888,0.00010850694444444444,0.8735894097222222,0.6886935763888888,0.01568627543747425,1.0
12312,1.0,0.7699193358421326,0.4946746230125427,0.8159921765327454,0.22720967233181,0.21433676779270172,0.15549880266189575,0.6136029958724976,0.20373256504535675,0.4241843521595001,0.9288194444444444,0.0,0.5164930555555556,0.7383897569444444,0.0235294122248888,1.0
12384,1.0,0.7132786512374878,0.5337809920310974,0.7950648069381714,0.21328581869602203,0.22803345322608948,0.15283414721488953,0.6172371506690979,0.21051543951034546,0.3606932759284973,0.8884548611111112,0.0018446180555555555,0.8734809027777778,0.7588975694444444,0.007843137718737125,1.0
12430,1.0,0.7533973455429077,0.5458086729049683,0.8176848888397217,0.2078268826007843,0.2293030023574829,0.14633041620254517,0.6388716101646423,0.20769304037094116,0.361995130777359,0.8799913194444444,0.0,0.7748480902777778,0.7723524305555556,0.0313725508749485,1.0
12472,1.0,0.7595946192741394,0.5071717500686646,0.814393162727356,0.20942795276641846,0.21373839676380157,0.14706562459468842,0.6176693439483643,0.19745615124702454,0.4054870009422302,0.9175347222222222,0.0007595486111111111,0.6959635416666666,0.7809244791666666,0.007843137718737125,1.0
12523,1.0,0.7689070105552673,0.6327571868896484,0.834372878074646,0.22812198102474213,0.29102465510368347,0.16577251255512238,0.6964501738548279,0.2542959749698639,0.2860720455646515,0.6550564236111112,0.0,0.7798394097222222,0.7785373263888888,0.0117647061124444,1.0
12684,1.0,0.6869595646858215,0.47441619634628296,0.7695525288581848,0.2346762865781784,0.24392162263393402,0.16481027007102966,0.5716122388839722,0.22672635316848755,0.4217478036880493,0.8939887152777778,0.0,0.7727864583333334,0.6159939236111112,0.01568627543747425,1.0
12776,1.0,0.6933785676956177,0.4554313123226166,0.7697227001190186,0.23845341801643372,0.22832533717155457,0.1645020842552185,0.5624067783355713,0.21766698360443115,0.4437282085418701,0.9212239583333334,0.0,0.6923828125,0.6124131944444444,0.0235294122248888,1.0
12789,1.0,0.6773825287818909,0.44711413979530334,0.7609425783157349,0.23010967671871185,0.22813773155212402,0.159574955701828,0.5517408847808838,0.21467167139053345,0.4465961456298828,0.9161241319444444,0.00021701388888888888,0.7666015625,0.5922309027777778,0.01568627543747425,1.0
12861,1.0,0.7189155220985413,0.47156354784965515,0.7866281270980835,0.22955995798110962,0.22493907809257507,0.15753298997879028,0.5814391374588013,0.21202324330806732,0.4335964322090149,0.9182942708333334,0.0,0.6395399305555556,0.6500651041666666,0.027450980618596077,1.0
12985,1.0,0.760532796382904,0.5180203318595886,0.8181644678115845,0.19826464354991913,0.21639765799045563,0.13728772103786469,0.6247479915618896,0.1959490180015564,0.3939657211303711,0.9063585069444444,0.00010850694444444444,0.671875,0.7632378472222222,0.007843137718737125,1.0
13043,1.0,0.7326703667640686,0.5328414440155029,0.8039679527282715,0.21918879449367523,0.2392815202474594,0.15500473976135254,0.6234986782073975,0.21847833693027496,0.37153273820877075,0.8699001736111112,0.0,0.7804904513888888,0.7400173611111112,0.01568627543747425,1.0
13144,1.0,0.718955934047699,0.506087064743042,0.7929320931434631,0.22083181142807007,0.2338028997182846,0.1550261676311493,0.6024352312088013,0.21591685712337494,0.39573752880096436,0.8963758680555556,0.0,0.7451171875,0.7056206597222222,0.0117647061124444,1.0
13255,1.0,0.7193453311920166,0.5173806548118591,0.7939606308937073,0.22645241022109985,0.24448835849761963,0.15986502170562744,0.6092982292175293,0.2243812382221222,0.3850778639316559,0.8722873263888888,0.0,0.7565104166666666,0.7004123263888888,0.019607843831181526,1.0
13443,1.0,0.6929181218147278,0.4543883502483368,0.7706252932548523,0.22582991421222687,0.22715741395950317,0.15705141425132751,0.5617597103118896,0.21269309520721436,0.4442608952522278,0.9172092013888888,0.0,0.7419704861111112,0.6181640625,0.0235294122248888,1.0
13475,1.0,0.7147156596183777,0.46378761529922485,0.7817304134368896,0.24030722677707672,0.23175302147865295,0.1652500182390213,0.5750606060028076,0.22019463777542114,0.44318917393684387,0.9185112847222222,0.0,0.6101345486111112,0.6213107638888888,0.019607843831181526,1.0
13524,1.0,0.7070687413215637,0.4756387174129486,0.7801926136016846,0.23492392897605896,0.23740699887275696,0.16361021995544434,0.5795554518699646,0.22226837277412415,0.4272090196609497,0.9087456597222222,0.0,0.6901041666666666,0.6336805555555556,0.01568627543747425,1.0
13586,1.0,0.6958937644958496,0.46012434363365173,0.7730587720870972,0.23165005445480347,0.21936677396297455,0.15865296125411987,0.5662939548492432,0.20983819663524628,0.4368654787540436,0.9232855902777778,0.00021701388888888888,0.7069227430555556,0.6318359375,0.019607843831181526,1.0
13692,1.0,0.6783241629600525,0.47132906317710876,0.7660092115402222,0.22403079271316528,0.2341964989900589,0.15775933861732483,0.566814124584198,0.2175707221031189,0.4204064607620239,0.9028862847222222,0.0,0.8149956597222222,0.6218532986111112,0.0235294122248888,1.0
13717,1.0,0.6930555701255798,0.46125540137290955,0.7707363367080688,0.23985865712165833,0.22886048257350922,0.16410507261753082,0.5658444166183472,0.21863996982574463,0.4369725286960602,0.9167751736111112,0.0,0.6565755208333334,0.6019965277777778,0.0235294122248888,1.0
13747,1.0,0.7383135557174683,0.48540475964546204,0.7990149259567261,0.2277030497789383,0.223639115691185,0.15542621910572052,0.596776008605957,0.2104751318693161,0.4248989224433899,0.9147135416666666,0.0,0.5836588541666666,0.6771918402777778,0.027450980618596077,1.0
13840,1.0,0.7656556367874146,0.5819487571716309,0.829188346862793,0.20298072695732117,0.24739494919776917,0.14485545456409454,0.665062427520752,0.21736575663089752,0.3303530812263489,0.8016493055555556,0.0,0.7985026041666666,0.7927517361111112,0.007843137718737125,1.0
13931,1.0,0.667275607585907,0.45937585830688477,0.7576542496681213,0.231178879737854,0.23036468029022217,0.16176274418830872,0.5555416345596313,0.21771399676799774,0.4290090799331665,0.9085286458333334,0.0,0.8156467013888888,0.6046006944444444,0.027450980618596077,1.0
14047,1.0,0.7149484157562256,0.5275024771690369,0.7930359840393066,0.23385080695152283,0.24734175205230713,0.1634233295917511,0.6138196587562561,0.22955158352851868,0.3725038170814514,0.8712022569444444,0.0,0.7416449652777778,0.6845703125,0.0235294122248888,1.0
14068,1.0,0.6996685266494751,0.4626319110393524,0.7740689516067505,0.23865577578544617,0.2333398461341858,0.16482886672019958,0.5690097212791443,0.22100578248500824,0.4392026364803314,0.9161241319444444,0.00010850694444444444,0.6574435763888888,0.6116536458333334,0.01568627543747425,1.0
14142,1.0,0.7282755970954895,0.4962797164916992,0.7938401699066162,0.24128425121307373,0.2397310882806778,0.166838601231575,0.5995683670043945,0.22612984478473663,0.41276466846466064,0.9011501736111112,0.00021701388888888888,0.5935329861111112,0.6671006944444444,0.007843137718737125,1.0
14306,1.0,0.7000277042388916,0.4757889211177826,0.777430534362793,0.23116861283779144,0.23215727508068085,0.16031737625598907,0.5772234797477722,0.21799516677856445,0.42285972833633423,0.9093967013888888,0.00021701388888888888,0.7222222222222222,0.6421440972222222,0.01568627543747425,1.0
14325,1.0,0.7344014644622803,0.48575714230537415,0.7976111173629761,0.2205032855272293,0.22605374455451965,0.15174412727355957,0.5956531167030334,0.20923973619937897,0.42247894406318665,0.9096137152777778,0.00010850694444444444,0.6495225694444444,0.6827256944444444,0.0117647061124444,1.0
14326,1.0,0.7080665826797485,0.526504635810852,0.7906472086906433,0.21718844771385193,0.2531135082244873,0.15254433453083038,0.6109039783477783,0.22458432614803314,0.36859700083732605,0.82421875,0.0,0.8257378472222222,0.6851128472222222,0.027450980618596077,1.0
14392,1.0,0.6439108848571777,0.4290598928928375,0.740850567817688,0.22016370296478271,0.23066724836826324,0.15605005621910095,0.52884441614151,0.2132486253976822,0.45603424310684204,0.9044053819444444,0.0,0.8736979166666666,0.5412326388888888,0.019607843831181526,1.0
14432,1.0,0.7326839566230774,0.5204256772994995,0.8029344081878662,0.21173357963562012,0.23554791510105133,0.14943167567253113,0.6160969138145447,0.21376365423202515,0.38478079438209534,0.8831380208333334,0.0,0.7732204861111112,0.7258029513888888,0.0235294122248888,1.0
14458,1.0,0.7038399577140808,0.49222496151924133,0.7817555665969849,0.22770923376083374,0.24102821946144104,0.16168181598186493,0.5885043144226074,0.2231147289276123,0.4080772399902344,0.8947482638888888,0.0,0.7728949652777778,0.6794704861111112,0.007843137718737125,1.0
14564,1.0,0.8992550373077393,0.8195326328277588,0.9245230555534363,0.18361926078796387,0.2722391188144684,0.13634301722049713,0.8553383946418762,0.2259657084941864,0.1439020335674286,0.3009982638888889,0.0003255208333333333,0.6341145833333334,0.9009331597222222,0.01568627543747425,1.0
14651,1.0,0.681605339050293,0.4543343186378479,0.7636748552322388,0.23512254655361176,0.23266395926475525,0.16350236535072327,0.5575531721115112,0.21973229944705963,0.4416690766811371,0.9155815972222222,0.0,0.7337239583333334,0.5928819444444444,0.019607843831181526,1.0
14751,1.0,0.6795704960823059,0.45038720965385437,0.7620718479156494,0.23381945490837097,0.2314956933259964,0.1625981330871582,0.5544450283050537,0.2183656394481659,0.44477251172065735,0.9142795138888888,0.0,0.7472873263888888,0.5897352430555556,0.027450980618596077,1.0
14783,1.0,0.7623344659805298,0.5331920385360718,0.8198649287223816,0.2081989198923111,0.2250615954399109,0.14659307897090912,0.6343863606452942,0.20416776835918427,0.37918299436569214,0.8896484375,0.00021701388888888888,0.7230902777777778,0.7846137152777778,0.003921568859368563,1.0
14786,1.0,0.7003481388092041,0.4687972664833069,0.7753884792327881,0.23982171714305878,0.23454441130161285,0.16564737260341644,0.5729823708534241,0.22249507904052734,0.43237587809562683,0.9112413194444444,0.00010850694444444444,0.6626519097222222,0.6200086805555556,0.0117647061124444,1.0
14790,1.0,0.729097306728363,0.4735613465309143,0.7912415862083435,0.2357976883649826,0.22617779672145844,0.1618124544620514,0.586182177066803,0.21498580276966095,0.43613362312316895,0.9226345486111112,0.00021701388888888888,0.5873480902777778,0.6635199652777778,0.01568627543747425,1.0
14852,1.0,0.7287232875823975,0.4757932126522064,0.7908765077590942,0.23869100213050842,0.2331627756357193,0.16446584463119507,0.5873387455940247,0.22033190727233887,0.43497851490974426,0.9157986111111112,0.00010850694444444444,0.5754123263888888,0.6407335069444444,0.01568627543747425,1.0
14983,1.0,0.7269037365913391,0.5076839923858643,0.7958247661590576,0.23166076838970184,0.2381884604692459,0.16277459263801575,0.6060788035392761,0.22254647314548492,0.39871227741241455,0.8978949652777778,0.0,0.6960720486111112,0.7000868055555556,0.007843137718737125,1.0
14995,1.0,0.706237256526947,0.480293869972229,0.7813053727149963,0.2336352914571762,0.22818806767463684,0.16117532551288605,0.582166314125061,0.2165510356426239,0.4195040464401245,0.9149305555555556,0.0,0.7010633680555556,0.6546223958333334,0.0235294122248888,1.0
15046,1.0,0.7186849117279053,0.5341737270355225,0.7970354557037354,0.21996267139911652,0.24669848382472992,0.15615949034690857,0.6193087697029114,0.22425054013729095,0.3660838007926941,0.8567708333333334,0.0,0.8063151041666666,0.7166883680555556,0.0313725508749485,1.0
15110,1.0,0.7086290717124939,0.4754672646522522,0.7818635702133179,0.23286178708076477,0.22661279141902924,0.16003024578094482,0.5801118016242981,0.21486596763134003,0.42528027296066284,0.9149305555555556,0.0,0.6804470486111112,0.6553819444444444,0.0313725508749485,1.0
15147,1.0,0.6991838216781616,0.4718928933143616,0.7759250998497009,0.23762236535549164,0.22852106392383575,0.1632031798362732,0.5745126008987427,0.21811752021312714,0.4268524646759033,0.9215494791666666,0.0003255208333333333,0.6712239583333334,0.623046875,0.01568627543747425,1.0
15187,1.0,0.7500519156455994,0.5335460901260376,0.8126800060272217,0.21923403441905975,0.23915182054042816,0.15375079214572906,0.6301026344299316,0.21642658114433289,0.37585484981536865,0.8587239583333334,0.0,0.7252604166666666,0.7604166666666666,0.01568627543747425,1.0
15208,1.0,0.7583852410316467,0.5527450442314148,0.8197968006134033,0.2092100977897644,0.2560670077800751,0.1507839858531952,0.6446753144264221,0.22340194880962372,0.3606034219264984,0.8127170138888888,0.0,0.8019748263888888,0.7556423611111112,0.01568627543747425,1.0
15277,1.0,0.7302347421646118,0.4794122278690338,0.793885350227356,0.2269163727760315,0.22526001930236816,0.15586698055267334,0.5902580618858337,0.21147698163986206,0.4292449355125427,0.9166666666666666,0.00021701388888888888,0.6179470486111112,0.6664496527777778,0.01568627543747425,1.0
15282,1.0,0.7351268529891968,0.5535705089569092,0.8076729774475098,0.2224218100309372,0.2525113821029663,0.1586092710494995,0.6368235349655151,0.2280934751033783,0.35203817486763,0.8352864583333334,0.00010850694444444444,0.7757161458333334,0.7339409722222222,0.0117647061124444,1.0
15348,1.0,0.7078163623809814,0.4621923863887787,0.7782097458839417,0.238430917263031,0.23393088579177856,0.1638898104429245,0.5716598629951477,0.22075572609901428,0.4421345293521881,0.9122178819444444,0.0,0.640625,0.6087239583333334,0.03921568766236305,1.0
15378,1.0,0.6825065612792969,0.456786572933197,0.7641229033470154,0.2416287362575531,0.23270057141780853,0.16656112670898438,0.559313178062439,0.22195810079574585,0.4389628469944,0.9156901041666666,0.0,0.6897786458333334,0.5889756944444444,0.019607843831181526,1.0
15383,1.0,0.6819959282875061,0.4478268623352051,0.76242595911026,0.23755572736263275,0.23233339190483093,0.1649647057056427,0.5537077784538269,0.22008316218852997,0.44935062527656555,0.9181857638888888,0.0,0.7235243055555556,0.5924479166666666,0.019607843831181526,1.0
15500,1.0,0.6997365951538086,0.4685572385787964,0.7752639055252075,0.23686307668685913,0.23342680931091309,0.16448462009429932,0.5726444721221924,0.22082671523094177,0.43224605917930603,0.9125434027777778,0.001193576388888889,0.6806640625,0.6260850694444444,0.0,1.0
15516,1.0,0.7003348469734192,0.45998477935791016,0.7740067839622498,0.23911617696285248,0.23033523559570312,0.16443097591400146,0.5676479935646057,0.21895691752433777,0.4412335455417633,0.9181857638888888,0.0,0.6623263888888888,0.6150173611111112,0.027450980618596077,1.0
15621,1.0,0.7022199034690857,0.4970158338546753,0.7815223932266235,0.23066692054271698,0.24779000878334045,0.1627422571182251,0.5908055901527405,0.22805991768836975,0.40248051285743713,0.8738064236111112,0.0,0.7777777777777778,0.6467013888888888,0.027450980618596077,1.0
15677,1.0,0.6719537377357483,0.43940210342407227,0.7550368905067444,0.24309852719306946,0.2375035285949707,0.16839344799518585,0.5449173450469971,0.22527019679546356,0.45689043402671814,0.9154730902777778,0.0,0.7025824652777778,0.5479600694444444,0.01568627543747425,1.0
15770,1.0,0.7202333807945251,0.4815938174724579,0.7876264452934265,0.239126056432724,0.2371901571750641,0.16506242752075195,0.5878347754478455,0.22340291738510132,0.4256719946861267,0.9040798611111112,0.00021701388888888888,0.6129557291666666,0.6482204861111112,0.0117647061124444,1.0
15779,1.0,0.6953163146972656,0.4660867154598236,0.7731707096099854,0.2339756041765213,0.227722629904747,0.16175782680511475,0.5696339011192322,0.21626818180084229,0.4318632483482361,0.9204644097222222,0.0,0.712890625,0.6286892361111112,0.019607843831181526,1.0
15926,1.0,0.6716639995574951,0.44924771785736084,0.7562993168830872,0.24578411877155304,0.24141262471675873,0.17051954567432404,0.5507540106773376,0.22881785035133362,0.4454866945743561,0.9055989583333334,0.0,0.7123480902777778,0.5620659722222222,0.027450980618596077,1.0
16038,1.0,0.7247315645217896,0.4740009307861328,0.7895497679710388,0.23092995584011078,0.22713245451450348,0.1594611406326294,0.5849418640136719,0.21390937268733978,0.43365922570228577,0.9198133680555556,0.00043402777777777775,0.6346571180555556,0.66015625,0.003921568859368563,1.0
16099,1.0,0.6835219264030457,0.45033958554267883,0.7647747993469238,0.2294919341802597,0.2270725816488266,0.1590663343667984,0.5559067130088806,0.21407550573349,0.4455246329307556,0.9189453125,0.0,0.7415364583333334,0.6019965277777778,0.0235294122248888,1.0
16104,1.0,0.700684666633606,0.46918997168540955,0.7773795127868652,0.2234894335269928,0.22556018829345703,0.15583068132400513,0.573540449142456,0.21106569468975067,0.4293397068977356,0.9147135416666666,0.0006510416666666666,0.7566189236111112,0.6459418402777778,0.0,1.0
16141,1.0,0.7607859969139099,0.5024471282958984,0.8124336004257202,0.2299780249595642,0.22837316989898682,0.1576574295759201,0.6150289177894592,0.21389752626419067,0.415496826171875,0.9105902777777778,0.0003255208333333333,0.5036892361111112,0.7014973958333334,0.0117647061124444,1.0
16226,1.0,0.7186635732650757,0.4844712018966675,0.7883510589599609,0.2341790497303009,0.22788932919502258,0.160325288772583,0.5891370177268982,0.21595169603824615,0.4194466173648834,0.9134114583333334,0.0,0.6299913194444444,0.6573350694444444,0.027450980618596077,1.0
16239,1.0,0.7590410709381104,0.49889838695526123,0.8131003975868225,0.21244709193706512,0.216695636510849,0.1447952538728714,0.6125000715255737,0.20024065673351288,0.4153006374835968,0.9124348958333334,0.0,0.5759548611111112,0.7260199652777778,0.01568627543747425,1.0
16273,1.0,0.7371795177459717,0.484777569770813,0.7970014214515686,0.23549459874629974,0.2333526760339737,0.1626569777727127,0.595839262008667,0.219679594039917,0.42812949419021606,0.9144965277777778,0.0007595486111111111,0.5645616319444444,0.6612413194444444,0.0117647061124444,1.0
16282,1.0,0.731120228767395,0.5351814031600952,0.8033744096755981,0.2189183235168457,0.24877718091011047,0.15541207790374756,0.6243410706520081,0.22453805804252625,0.3704262971878052,0.8552517361111112,0.00010850694444444444,0.7705078125,0.7173394097222222,0.0117647061124444,1.0
16453,1.0,0.7259527444839478,0.48640599846839905,0.792651355266571,0.22755250334739685,0.2285161018371582,0.15759648382663727,0.592942476272583,0.2141060084104538,0.4201432168483734,0.9141710069444444,0.0003255208333333333,0.6625434027777778,0.6804470486111112,0.003921568859368563,1.0
16561,1.0,0.7077248096466064,0.4723137319087982,0.7810981273651123,0.22775249183177948,0.22735737264156342,0.15795481204986572,0.5779030919075012,0.21350790560245514,0.42884764075279236,0.9173177083333334,0.00010850694444444444,0.7182074652777778,0.6511501736111112,0.0117647061124444,1.0
16623,1.0,0.6890212297439575,0.5085082650184631,0.7790143489837646,0.2124052345752716,0.23129089176654816,0.15069660544395447,0.5933192372322083,0.21214276552200317,0.38002610206604004,0.8856336805555556,0.0,0.873046875,0.6966145833333334,0.03921568766236305,1.0
16635,1.0,0.7671671509742737,0.5522624850273132,0.8249455690383911,0.21065875887870789,0.23359337449073792,0.14816001057624817,0.6476048231124878,0.21029211580753326,0.3610025942325592,0.8586154513888888,0.0,0.7184244791666666,0.7921006944444444,0.01568627543747425,1.0
16736,1.0,0.742354691028595,0.4984132945537567,0.8054640293121338,0.2060546725988388,0.2141994833946228,0.14168652892112732,0.6063555479049683,0.19733299314975739,0.40893539786338806,0.9135199652777778,0.0003255208333333333,0.6796875,0.7242838541666666,0.003921568859368563,1.0
16790,1.0,0.6489633917808533,0.436362624168396,0.7437572479248047,0.23012937605381012,0.23376286029815674,0.16224265098571777,0.5349732637405396,0.21891623735427856,0.4501799941062927,0.9067925347222222,0.0,0.8256293402777778,0.5580512152777778,0.027450980618596077,1.0
16820,1.0,0.7399815917015076,0.5679423809051514,0.8116102814674377,0.226841002702713,0.25694739818573,0.163550466299057,0.6471602916717529,0.23385019600391388,0.34048667550086975,0.8285590277777778,0.0,0.7868923611111112,0.7578125,0.01568627543747425,1.0
16862,1.0,0.7111911177635193,0.4742123782634735,0.7816993594169617,0.24220050871372223,0.23321431875228882,0.1664847582578659,0.5801225304603577,0.22230854630470276,0.43020135164260864,0.9146050347222222,0.00043402777777777775,0.6164279513888888,0.6299913194444444,0.007843137718737125,1.0
16879,1.0,0.6941120624542236,0.46726158261299133,0.7722175717353821,0.241362527012825,0.22920221090316772,0.1651865541934967,0.5698548555374146,0.21975436806678772,0.4305056035518646,0.9172092013888888,0.0003255208333333333,0.6602647569444444,0.6153428819444444,0.0117647061124444,1.0
16909,1.0,0.7277539372444153,0.5129204392433167,0.7979323863983154,0.22833454608917236,0.2354598492383957,0.15852035582065582,0.6096470355987549,0.21946686506271362,0.39190196990966797,0.8987630208333334,0.00010850694444444444,0.6832682291666666,0.6950954861111112,0.01568627543747425,1.0
17034,1.0,0.7129417061805725,0.48436689376831055,0.787263035774231,0.2119026482105255,0.2268076390028,0.1487969011068344,0.5872409343719482,0.20793764293193817,0.41632357239723206,0.9059244791666666,0.00010850694444444444,0.7750651041666666,0.685546875,0.0117647061124444,1.0
17107,1.0,0.702890932559967,0.45987966656684875,0.7788398861885071,0.21260614693164825,0.20581959187984467,0.14549846947193146,0.568901538848877,0.19456437230110168,0.43619030714035034,0.9269748263888888,0.0,0.7536892361111112,0.6850043402777778,0.054901961237192154,1.0
17110,1.0,0.6435062289237976,0.41864490509033203,0.7351915836334229,0.24757155776023865,0.23979122936725616,0.17410743236541748,0.5219647288322449,0.2284829169511795,0.47152698040008545,0.9168836805555556,0.0,0.7918836805555556,0.515625,0.027450980618596077,1.0
17253,1.0,0.7122438549995422,0.4531156122684479,0.7822840213775635,0.2114335298538208,0.2038317322731018,0.144892618060112,0.5681201815605164,0.19206073880195618,0.44645869731903076,0.9325086805555556,0.0,0.7633463541666666,0.6711154513888888,0.0470588244497776,1.0
17266,1.0,0.7828691005706787,0.51952064037323,0.8271322846412659,0.22042757272720337,0.21934449672698975,0.14997224509716034,0.6333295702934265,0.20396482944488525,0.4016580581665039,0.8998480902777778,0.0,0.4526909722222222,0.7536892361111112,0.04313725605607033,1.0
17306,1.0,0.6431355476379395,0.39588138461112976,0.7338435053825378,0.22630570828914642,0.21867221593856812,0.15815341472625732,0.5083380937576294,0.20719122886657715,0.4930834174156189,0.9292534722222222,0.0,0.8528645833333334,0.5015190972222222,0.054901961237192154,1.0
17438,1.0,0.7834580540657043,0.4945831894874573,0.8241919279098511,0.21363207697868347,0.20203036069869995,0.14383834600448608,0.618532121181488,0.18955875933170319,0.42632463574409485,0.9212239583333334,0.0,0.4536675347222222,0.7676866319444444,0.03529411926865578,1.0
17569,1.0,0.6868123412132263,0.43784767389297485,0.7660701274871826,0.2191830724477768,0.20414668321609497,0.1487819403409958,0.5497055053710938,0.19488435983657837,0.45504331588745117,0.9376085069444444,0.0,0.7623697916666666,0.6182725694444444,0.05098039284348488,1.0
17748,1.0,0.7024454474449158,0.4931560158729553,0.7840133905410767,0.2030845582485199,0.22977299988269806,0.14336970448493958,0.5888912677764893,0.20530079305171967,0.40040087699890137,0.8859592013888888,0.0,0.8844401041666666,0.6710069444444444,0.0470588244497776,1.0
17870,1.0,0.6866230368614197,0.4652846157550812,0.7705533504486084,0.2126525491476059,0.2246856689453125,0.14911925792694092,0.566265344619751,0.2056579291820526,0.4259287714958191,0.8999565972222222,0.0,0.8681640625,0.6483289930555556,0.027450980618596077,1.0
17901,1.0,0.680139422416687,0.45610448718070984,0.7616145014762878,0.24930347502231598,0.23064613342285156,0.17272664606571198,0.5579190850257874,0.22346122562885284,0.43846234679222107,0.9222005208333334,0.0,0.7033420138888888,0.6178385416666666,0.04313725605607033,1.0
17960,1.0,0.6876617074012756,0.4391084909439087,0.7659918069839478,0.22466932237148285,0.20815689861774445,0.1538756936788559,0.5506905913352966,0.1999070942401886,0.45491573214530945,0.9320746527777778,0.0,0.7747395833333334,0.6194661458333334,0.05098039284348488,1.0
17990,1.0,0.6482149362564087,0.4394344389438629,0.7438589930534363,0.2320021688938141,0.2319401651620865,0.16292689740657806,0.5365641713142395,0.2177390456199646,0.44375213980674744,0.8997395833333334,0.0,0.8837890625,0.5814887152777778,0.04313725605607033,1.0
18006,1.0,0.6882995367050171,0.4538815915584564,0.768492579460144,0.2274511307477951,0.2158578336238861,0.15613874793052673,0.5598381757736206,0.20589782297611237,0.43949151039123535,0.9253472222222222,0.0,0.7574869791666666,0.6243489583333334,0.04313725605607033,1.0
18032,1.0,0.6682465672492981,0.44862258434295654,0.7581154704093933,0.21599094569683075,0.221226766705513,0.15090268850326538,0.5495724081993103,0.2054320126771927,0.43826183676719666,0.9084201388888888,0.0,0.8679470486111112,0.6168619791666666,0.05098039284348488,1.0
18425,1.0,0.75152587890625,0.5027173161506653,0.8091133236885071,0.2216522991657257,0.21768100559711456,0.15115198493003845,0.6120402812957764,0.20441335439682007,0.40863037109375,0.9135199652777778,0.0,0.5804036458333334,0.7234157986111112,0.03529411926865578,1.0
18499,1.0,0.6931972503662109,0.4411756098270416,0.7682406902313232,0.23256418108940125,0.21698835492134094,0.15826867520809174,0.553815484046936,0.20765365660190582,0.4569236934185028,0.9264322916666666,0.0,0.6846788194444444,0.5908203125,0.0313725508749485,1.0
18500,1.0,0.7206835150718689,0.47736290097236633,0.7887548804283142,0.22561001777648926,0.22120250761508942,0.15627698600292206,0.5856144428253174,0.20868301391601562,0.42684653401374817,0.9156901041666666,0.0,0.6776258680555556,0.6934678819444444,0.0235294122248888,1.0
18599,1.0,0.7333248257637024,0.4776288568973541,0.7953979969024658,0.22816714644432068,0.21527217328548431,0.15468016266822815,0.5903075933456421,0.205436572432518,0.4302879571914673,0.9226345486111112,0.0005425347222222222,0.5823567708333334,0.6759982638888888,0.007843137718737125,1.0
18909,1.0,0.746957540512085,0.48427799344062805,0.8050249218940735,0.2101798951625824,0.2106684446334839,0.14341558516025543,0.5993843078613281,0.19586493074893951,0.42611920833587646,0.9232855902777778,0.0,0.6282552083333334,0.7237413194444444,0.019607843831181526,1.0
18963,1.0,0.708846926689148,0.4539943337440491,0.7804504036903381,0.21447700262069702,0.20913580060005188,0.14618144929409027,0.5674112439155579,0.1965356022119522,0.44624048471450806,0.9262152777777778,0.0,0.7008463541666666,0.6413845486111112,0.019607843831181526,1.0
19061,1.0,0.7274152636528015,0.46360889077186584,0.7908454537391663,0.2170785814523697,0.2121458649635315,0.1490768939256668,0.5797919631004333,0.19935384392738342,0.44306546449661255,0.9259982638888888,0.0,0.6550564236111112,0.6767578125,0.0235294122248888,1.0
19151,1.0,0.6739829778671265,0.47956281900405884,0.7654547691345215,0.22579902410507202,0.2258063554763794,0.1579354852437973,0.5702861547470093,0.21380920708179474,0.4071153402328491,0.9123263888888888,0.0,0.814453125,0.6488715277777778,0.01568627543747425,1.0
19161,1.0,0.7337954640388489,0.4986298382282257,0.8005450963973999,0.21347427368164062,0.21525369584560394,0.14721621572971344,0.6033626198768616,0.20129336416721344,0.4059404134750366,0.9090711805555556,0.0,0.6944444444444444,0.7404513888888888,0.027450980618596077,1.0
19193,1.0,0.7582581043243408,0.4958261251449585,0.8111788034439087,0.2226555198431015,0.21932192146778107,0.15166065096855164,0.6102434992790222,0.2057962417602539,0.4200907349586487,0.9211154513888888,0.0003255208333333333,0.5180121527777778,0.69921875,0.01568627543747425,1.0
19435,1.0,0.7445104122161865,0.4726073443889618,0.8008842468261719,0.21825024485588074,0.21336910128593445,0.14882586896419525,0.5913298726081848,0.20053046941757202,0.43995383381843567,0.9269748263888888,0.0016276041666666667,0.5728081597222222,0.6689453125,0.01568627543747425,1.0
19437,1.0,0.7055699825286865,0.4645778238773346,0.7798930406570435,0.21993525326251984,0.21776457130908966,0.15084555745124817,0.5725804567337036,0.2042776495218277,0.43434423208236694,0.9214409722222222,0.0007595486111111111,0.7114800347222222,0.6365017361111112,0.0117647061124444,1.0
19443,1.0,0.7106246948242188,0.4510548412799835,0.7808751463890076,0.21306604146957397,0.21077856421470642,0.14564922451972961,0.5662658214569092,0.19761523604393005,0.4511392414569855,0.9288194444444444,0.0,0.6931423611111112,0.6197916666666666,0.019607843831181526,1.0
19600,1.0,0.683356761932373,0.46435996890068054,0.767207145690918,0.22839052975177765,0.22758007049560547,0.15920580923557281,0.5643646121025085,0.21472829580307007,0.42955482006073,0.9168836805555556,0.0006510416666666666,0.7523871527777778,0.6264105902777778,0.003921568859368563,1.0
19621,1.0,0.7263978123664856,0.47986283898353577,0.7919121980667114,0.23104536533355713,0.2198602259159088,0.15739791095256805,0.5891504287719727,0.20929110050201416,0.42560315132141113,0.9192708333333334,0.00010850694444444444,0.6180555555555556,0.6723090277777778,0.01568627543747425,1.0
19636,1.0,0.7137250900268555,0.48909229040145874,0.7877038717269897,0.2214471697807312,0.22520947456359863,0.15347224473953247,0.5902992486953735,0.20970553159713745,0.41074973344802856,0.9129774305555556,0.00021701388888888888,0.7348090277777778,0.6745876736111112,0.01568627543747425,1.0
19872,1.0,0.6976592540740967,0.4542815387248993,0.7727962732315063,0.23030273616313934,0.21905004978179932,0.15851642191410065,0.563362181186676,0.2089489996433258,0.4442555010318756,0.9237196180555556,0.0,0.7035590277777778,0.6312934027777778,0.01568627543747425,1.0
19874,1.0,0.6921253800392151,0.45684105157852173,0.7698419094085693,0.2367381453514099,0.22410935163497925,0.1619223654270172,0.5628731846809387,0.21416334807872772,0.43994539976119995,0.9207899305555556,0.0,0.6852213541666666,0.6060112847222222,0.0313725508749485,1.0
19964,1.0,0.7180734276771545,0.47448980808258057,0.7866804599761963,0.22740904986858368,0.22513172030448914,0.15717117488384247,0.5829110741615295,0.21132420003414154,0.4291297495365143,0.9141710069444444,0.0,0.6955295138888888,0.6661241319444444,0.019607843831181526,1.0
19968,1.0,0.6983540654182434,0.4556789994239807,0.7731077671051025,0.2339719831943512,0.2204110026359558,0.16019727289676666,0.5644257068634033,0.21075741946697235,0.4429623484611511,0.9224175347222222,0.00043402777777777775,0.6873914930555556,0.6223958333333334,0.007843137718737125,1.0
20194,1.0,0.6975243091583252,0.4476494789123535,0.7717005610466003,0.23226486146450043,0.21531923115253448,0.1581837683916092,0.5593039393424988,0.2070721983909607,0.4513256251811981,0.9273003472222222,0.00021701388888888888,0.6705729166666666,0.6057942708333334,0.01568627543747425,1.0
20220,1.0,0.6935449242591858,0.4505425691604614,0.7701708674430847,0.2315528839826584,0.2163531482219696,0.15807077288627625,0.5596379041671753,0.20778395235538483,0.4469972252845764,0.9254557291666666,0.0,0.6795789930555556,0.6124131944444444,0.019607843831181526,1.0
20268,1.0,0.699574887752533,0.4565810561180115,0.7730379700660706,0.23992377519607544,0.22509431838989258,0.16490907967090607,0.5653123259544373,0.21646472811698914,0.44465577602386475,0.9212239583333334,0.00010850694444444444,0.650390625,0.6188151041666666,0.0117647061124444,1.0
20294,1.0,0.7071627378463745,0.4648650586605072,0.781352162361145,0.21365295350551605,0.21120892465114594,0.14720357954502106,0.5733916163444519,0.19788606464862823,0.43295300006866455,0.9259982638888888,0.0,0.7488064236111112,0.6741536458333334,0.027450980618596077,1.0
20303,1.0,0.750700056552887,0.5005885362625122,0.807449996471405,0.23006482422351837,0.22530131042003632,0.15679819881916046,0.6103540658950806,0.21220536530017853,0.41283926367759705,0.9102647569444444,0.00021701388888888888,0.5335286458333334,0.6999782986111112,0.003921568859368563,1.0
20308,1.0,0.7221558690071106,0.46716752648353577,0.7890089154243469,0.21492590010166168,0.2167234867811203,0.148014098405838,0.5800988674163818,0.20171095430850983,0.4376009702682495,0.9214409722222222,0.0,0.6870659722222222,0.669921875,0.027450980618596077,1.0
20358,1.0,0.7045207023620605,0.4603230655193329,0.777470588684082,0.2316712886095047,0.22220055758953094,0.15804587304592133,0.5694929957389832,0.21123959124088287,0.44078314304351807,0.9227430555555556,0.00021701388888888888,0.6500651041666666,0.6148003472222222,0.0,1.0
20370,1.0,0.7223524451255798,0.47833606600761414,0.7885617017745972,0.23854832351207733,0.22687071561813354,0.16353411972522736,0.5866627097129822,0.2170134037733078,0.4282470643520355,0.9189453125,0.0,0.6050347222222222,0.6593967013888888,0.027450980618596077,1.0
20429,1.0,0.7014539837837219,0.4626842737197876,0.7745307087898254,0.24377581477165222,0.22822244465351105,0.1679689884185791,0.5696269273757935,0.2197820097208023,0.4385392963886261,0.9208984375,0.0,0.6692708333333334,0.6274956597222222,0.0235294122248888,1.0
20480,1.0,0.7435534000396729,0.4807802438735962,0.8018573522567749,0.2189183086156845,0.21138453483581543,0.14909029006958008,0.5959522724151611,0.19958586990833282,0.42962509393692017,0.9229600694444444,0.0,0.5995008680555556,0.7061631944444444,0.003921568859368563,1.0
20592,1.0,0.7583491206169128,0.55521559715271,0.8179776668548584,0.2293454259634018,0.27207693457603455,0.16396145522594452,0.6459074020385742,0.24078837037086487,0.36176300048828125,0.7785373263888888,0.0,0.6930338541666666,0.7406684027777778,0.007843137718737125,1.0
20660,1.0,0.699950635433197,0.4633999466896057,0.7770246267318726,0.22009722888469696,0.21103258430957794,0.15128731727600098,0.5698818564414978,0.20095989108085632,0.4329928159713745,0.9256727430555556,0.0,0.7419704861111112,0.6625434027777778,0.007843137718737125,1.0
20697,1.0,0.6938555240631104,0.45536237955093384,0.7708525061607361,0.23097197711467743,0.22434183955192566,0.15976931154727936,0.5626377463340759,0.2130051702260971,0.4433029890060425,0.9188368055555556,0.0,0.7137586805555556,0.6234809027777778,0.003921568859368563,1.0
20816,1.0,0.7368770837783813,0.47195208072662354,0.797435462474823,0.21296092867851257,0.21131958067417145,0.1459702104330063,0.5882696509361267,0.19711710512638092,0.43604084849357605,0.9202473958333334,0.0,0.6603732638888888,0.6955295138888888,0.01568627543747425,1.0
20859,1.0,0.6593473553657532,0.472025603055954,0.7553265690803528,0.23301400244235992,0.2353086769580841,0.16469165682792664,0.5603311657905579,0.2227829098701477,0.41289222240448,0.9089626736111112,0.0,0.8344184027777778,0.6200086805555556,0.007843137718737125,1.0
20934,1.0,0.708050012588501,0.48503372073173523,0.7826036214828491,0.23008732497692108,0.2381700575351715,0.16182543337345123,0.5856385231018066,0.22116385400295258,0.4161750376224518,0.8962673611111112,0.0,0.7692057291666666,0.6623263888888888,0.0235294122248888,1.0
20966,1.0,0.6750501990318298,0.4566504657268524,0.759320080280304,0.2419988214969635,0.2404787689447403,0.17031292617321014,0.5564563274383545,0.22737587988376617,0.438402384519577,0.9077690972222222,0.0,0.7432725694444444,0.5946180555555556,0.0313725508749485,1.0
20972,1.0,0.7577908039093018,0.4922385811805725,0.8116676807403564,0.2091422826051712,0.21431288123130798,0.14266346395015717,0.6080536246299744,0.19762086868286133,0.4218972623348236,0.916015625,0.0,0.5831163194444444,0.7184244791666666,0.007843137718737125,1.0
20973,1.0,0.690881609916687,0.45365816354751587,0.7704077959060669,0.21927548944950104,0.21370789408683777,0.15217120945453644,0.5606974363327026,0.2025250643491745,0.4415763318538666,0.9242621527777778,0.0,0.7619357638888888,0.6456163194444444,0.019607843831181526,1.0
21011,1.0,0.7016144394874573,0.4564291536808014,0.776178240776062,0.2227012664079666,0.21671058237552643,0.15251746773719788,0.5661909580230713,0.20450252294540405,0.4424192011356354,0.9244791666666666,0.0003255208333333333,0.7010633680555556,0.6247829861111112,0.007843137718737125,1.0
21016,1.0,0.7374927997589111,0.4930011034011841,0.8016403913497925,0.21464645862579346,0.21178138256072998,0.14496251940727234,0.6012890338897705,0.19790534675121307,0.4123856723308563,0.9155815972222222,0.0,0.6354166666666666,0.7090928819444444,0.0235294122248888,1.0
21019,1.0,0.794630765914917,0.6345107555389404,0.8493212461471558,0.21028108894824982,0.2827622890472412,0.15141244232654572,0.7068750858306885,0.24096587300300598,0.29018351435661316,0.6643880208333334,0.0,0.6864149305555556,0.8045789930555556,0.0235294122248888,1.0
21045,1.0,0.6874186992645264,0.44557034969329834,0.7655301094055176,0.23668283224105835,0.21911053359508514,0.16193769872188568,0.5543584823608398,0.2115207463502884,0.4514080584049225,0.9268663194444444,0.00010850694444444444,0.6806640625,0.5974392361111112,0.0117647061124444,1.0
21142,1.0,0.7688657641410828,0.5036513805389404,0.8196980357170105,0.20354384183883667,0.20360848307609558,0.13828355073928833,0.618979811668396,0.18872886896133423,0.41088494658470154,0.923828125,0.0,0.5894097222222222,0.7720269097222222,0.0313725508749485,1.0
21197,1.0,0.7351579666137695,0.5056798458099365,0.8008259534835815,0.22280925512313843,0.22859594225883484,0.15498223900794983,0.6079404354095459,0.21208828687667847,0.4008721113204956,0.9067925347222222,0.00021701388888888888,0.6966145833333334,0.7076822916666666,0.01568627543747425,1.0
21308,1.0,0.7650483846664429,0.5310137867927551,0.8203614354133606,0.218877375125885,0.2247593104839325,0.15083111822605133,0.6339758634567261,0.20819765329360962,0.383419007062912,0.8994140625,0.0,0.5938585069444444,0.7618272569444444,0.01568627543747425,1.0
21469,1.0,0.7405360341072083,0.47796547412872314,0.8001421689987183,0.21462701261043549,0.21771226823329926,0.14691486954689026,0.5932022333145142,0.20203913748264313,0.43267127871513367,0.921875,0.0,0.6131727430555556,0.6756727430555556,0.0235294122248888,1.0
21634,1.0,0.689247190952301,0.4328120946884155,0.7665615677833557,0.2177586853504181,0.20527677237987518,0.14771968126296997,0.5475336313247681,0.19556017220020294,0.4631598889827728,0.9322916666666666,0.0,0.7209201388888888,0.5845269097222222,0.019607843831181526,1.0
21788,1.0,0.7109158039093018,0.4578537344932556,0.7825955152511597,0.2118089497089386,0.207725390791893,0.14415472745895386,0.5705398321151733,0.19523553550243378,0.4425393342971802,0.9279513888888888,0.00010850694444444444,0.7001953125,0.6440972222222222,0.003921568859368563,1.0
21845,1.0,0.6950606107711792,0.44830942153930664,0.7710503339767456,0.22758449614048004,0.21498243510723114,0.15495921671390533,0.5588805675506592,0.20512646436691284,0.4490267336368561,0.9249131944444444,0.0,0.7003038194444444,0.6083984375,0.019607843831181526,1.0
22078,1.0,0.6992604732513428,0.48841869831085205,0.7799291610717773,0.22236517071723938,0.2273266613483429,0.15602345764636993,0.5846925973892212,0.21219539642333984,0.406744122505188,0.9069010416666666,0.00010850694444444444,0.7967664930555556,0.681640625,0.007843137718737125,1.0
22288,1.0,0.7486119866371155,0.4782905578613281,0.805489182472229,0.20483916997909546,0.20390459895133972,0.1388549506664276,0.596417248249054,0.18968674540519714,0.4321485161781311,0.9284939236111112,0.00010850694444444444,0.6192491319444444,0.7097439236111112,0.01568627543747425,1.0
22290,1.0,0.7533798813819885,0.4881646931171417,0.8093593120574951,0.20479655265808105,0.2093941867351532,0.1393478363752365,0.6040802001953125,0.19305627048015594,0.4238056242465973,0.9197048611111112,0.00010850694444444444,0.6072048611111112,0.7179904513888888,0.01568627543747425,1.0
22302,1.0,0.7344235181808472,0.47375282645225525,0.7971975803375244,0.2072492390871048,0.2109929770231247,0.14170219004154205,0.5885660648345947,0.19506964087486267,0.43325483798980713,0.9213324652777778,0.00043402777777777775,0.6602647569444444,0.6808810763888888,0.0117647061124444,1.0
22337,1.0,0.719449520111084,0.46455779671669006,0.7859524488449097,0.2307806760072708,0.21634149551391602,0.15615828335285187,0.5774094462394714,0.20672164857387543,0.4399951100349426,0.9233940972222222,0.0003255208333333333,0.6104600694444444,0.6393229166666666,0.0117647061124444,1.0
22423,1.0,0.6836307644844055,0.4348537027835846,0.7621166110038757,0.23142315447330475,0.2156813144683838,0.15897884964942932,0.5465461015701294,0.20728914439678192,0.4614352583885193,0.9296875,0.0,0.7191840277777778,0.5872395833333334,0.03921568766236305,1.0
22484,1.0,0.7458644509315491,0.47254350781440735,0.803910493850708,0.19551102817058563,0.20010270178318024,0.1327427178621292,0.5920422673225403,0.18327398598194122,0.4357799291610718,0.9244791666666666,0.0,0.6667751736111112,0.7199435763888888,0.0313725508749485,1.0
22503,1.0,0.7357744574546814,0.48843616247177124,0.7992549538612366,0.21790161728858948,0.21530379354953766,0.14964649081230164,0.5978236794471741,0.20189498364925385,0.41829419136047363,0.9187282986111112,0.0,0.6519097222222222,0.7170138888888888,0.019607843831181526,1.0
22570,1.0,0.7187291383743286,0.46640074253082275,0.7848834991455078,0.238282710313797,0.22293521463871002,0.1620112955570221,0.5781539678573608,0.2135184109210968,0.4389825463294983,0.9230685763888888,0.0,0.6009114583333334,0.6411675347222222,0.027450980618596077,1.0
22605,1.0,0.7517075538635254,0.47796759009361267,0.8068792819976807,0.20329082012176514,0.2064453810453415,0.13863880932331085,0.597311794757843,0.19057171046733856,0.43386995792388916,0.9223090277777778,0.0,0.6240234375,0.7131076388888888,0.0117647061124444,1.0
22663,1.0,0.7557104229927063,0.5449691414833069,0.8178619742393494,0.21586565673351288,0.22982820868492126,0.152102530002594,0.6390905380249023,0.21151039004325867,0.3654816746711731,0.8893229166666666,0.00021701388888888888,0.7386067708333334,0.7709418402777778,0.0,1.0
22747,1.0,0.6567997932434082,0.4317423403263092,0.748788595199585,0.2169095277786255,0.21978580951690674,0.153131365776062,0.5351778268814087,0.20630918443202972,0.4563889503479004,0.9284939236111112,0.0,0.8557942708333334,0.5783420138888888,0.003921568859368563,1.0
23221,1.0,0.740248441696167,0.48669707775115967,0.8010689616203308,0.2183833122253418,0.21872377395629883,0.14995238184928894,0.5983473658561707,0.20427939295768738,0.4231482148170471,0.9200303819444444,0.00010850694444444444,0.6179470486111112,0.705078125,0.01568627543747425,1.0
23225,1.0,0.7381689548492432,0.4823210537433624,0.7995812892913818,0.22007110714912415,0.21121476590633392,0.14865970611572266,0.594987154006958,0.1995595395565033,0.4253407120704651,0.9231770833333334,0.0,0.595703125,0.7013888888888888,0.019607843831181526,1.0
23233,1.0,0.692014753818512,0.46311575174331665,0.7723448276519775,0.2264029085636139,0.21568937599658966,0.15470139682292938,0.5668086409568787,0.2061506062746048,0.4313216805458069,0.9253472222222222,0.00010850694444444444,0.7118055555555556,0.6314019097222222,0.01568627543747425,1.0
23274,1.0,0.7467809915542603,0.4761106073856354,0.8038761019706726,0.20844459533691406,0.20737172663211823,0.14095589518547058,0.594406247138977,0.19266930222511292,0.4345390200614929,0.9220920138888888,0.0,0.6061197916666666,0.7009548611111112,0.027450980618596077,1.0
23277,1.0,0.7347119450569153,0.5059861540794373,0.7997859716415405,0.23595499992370605,0.22986990213394165,0.1612178236246109,0.6078684329986572,0.21771861612796783,0.40127453207969666,0.9071180555555556,0.0,0.5916883680555556,0.6947699652777778,0.019607843831181526,1.0
23297,1.0,0.7607294321060181,0.5242817401885986,0.8177036046981812,0.21319539844989777,0.2211267203092575,0.14725925028324127,0.6284297108650208,0.2040497213602066,0.3887876272201538,0.9032118055555556,0.0008680555555555555,0.6081814236111112,0.7578125,0.007843137718737125,1.0
23376,1.0,0.6773692965507507,0.44853198528289795,0.761735737323761,0.22715966403484344,0.21866528689861298,0.15720033645629883,0.5526595115661621,0.2078864872455597,0.44267070293426514,0.9236111111111112,0.0,0.7885199652777778,0.6130642361111112,0.019607843831181526,1.0
23410,1.0,0.6633191704750061,0.41882917284965515,0.7493911385536194,0.22925090789794922,0.2088775336742401,0.15566891431808472,0.5296157002449036,0.20222198963165283,0.4711759388446808,0.9342447916666666,0.0,0.7352430555555556,0.5269097222222222,0.03529411926865578,1.0
23412,1.0,0.7280347943305969,0.47727781534194946,0.7925887703895569,0.22893932461738586,0.21405240893363953,0.1557009220123291,0.5881996154785156,0.20498913526535034,0.42830008268356323,0.9241536458333334,0.00010850694444444444,0.6182725694444444,0.6857638888888888,0.0117647061124444,1.0
23429,1.0,0.7062989473342896,0.4786241352558136,0.782247006893158,0.22314266860485077,0.21684516966342926,0.15425057709217072,0.5813119411468506,0.2057696431875229,0.41933923959732056,0.9229600694444444,0.0,0.7211371527777778,0.6826171875,0.0117647061124444,1.0
23501,1.0,0.6642113924026489,0.45376288890838623,0.7541905641555786,0.2377830296754837,0.233799546957016,0.1662319302558899,0.5509357452392578,0.22216981649398804,0.43603649735450745,0.9131944444444444,0.0,0.7604166666666666,0.5903862847222222,0.01568627543747425,1.0
23694,1.0,0.686689019203186,0.4353894591331482,0.7628766298294067,0.239829882979393,0.2196449488401413,0.16406583786010742,0.5478615164756775,0.21280205249786377,0.46317392587661743,0.9283854166666666,0.0,0.6776258680555556,0.5837673611111112,0.0313725508749485,1.0
23709,1.0,0.709006130695343,0.4808155298233032,0.7822972536087036,0.23187853395938873,0.2356560230255127,0.16249971091747284,0.5834134221076965,0.220493346452713,0.421810507774353,0.9059244791666666,0.0,0.7068142361111112,0.6590711805555556,0.01568627543747425,1.0
23723,1.0,0.7129183411598206,0.46316125988960266,0.7829954624176025,0.2261848896741867,0.20888923108577728,0.15371884405612946,0.574299693107605,0.20095252990722656,0.4374517798423767,0.9313151041666666,0.0,0.6743706597222222,0.6636284722222222,0.027450980618596077,1.0
23906,1.0,0.7012438178062439,0.47976282238960266,0.7762633562088013,0.2489616423845291,0.24048642814159393,0.17367660999298096,0.5797866582870483,0.2299836128950119,0.42187631130218506,0.9083116319444444,0.0,0.6695963541666666,0.6431206597222222,0.01568627543747425,1.0
23919,1.0,0.6980387568473816,0.46801894903182983,0.7762701511383057,0.2239447981119156,0.21785151958465576,0.1540806144475937,0.5719354748725891,0.20636138319969177,0.42765769362449646,0.9203559027777778,0.0,0.7503255208333334,0.6487630208333334,0.019607843831181526,1.0
24027,1.0,0.7101771235466003,0.4660722315311432,0.7816154956817627,0.2313610166311264,0.21755020320415497,0.15651863813400269,0.5750315189361572,0.20800341665744781,0.4347705841064453,0.9229600694444444,0.0,0.6359592013888888,0.6356336805555556,0.0313725508749485,1.0
24105,1.0,0.6788785457611084,0.451259970664978,0.7608213424682617,0.23930439352989197,0.235127255320549,0.168138325214386,0.5546079277992249,0.22310803830623627,0.44561052322387695,0.9167751736111112,0.0,0.7316623263888888,0.6037326388888888,0.019607843831181526,1.0
24137,1.0,0.6907036900520325,0.43727874755859375,0.7677505016326904,0.22103556990623474,0.20714978873729706,0.1498877853155136,0.550726592540741,0.1975940614938736,0.45849689841270447,0.9299045138888888,0.0,0.7180989583333334,0.5949435763888888,0.027450980618596077,1.0
24208,1.0,0.642664909362793,0.44623634219169617,0.7407773733139038,0.24055153131484985,0.23316536843776703,0.17100723087787628,0.5385461449623108,0.2239421159029007,0.437517374753952,0.9192708333333334,0.0,0.8254123263888888,0.6030815972222222,0.01568627543747425,1.0
24238,1.0,0.7190048694610596,0.5009213089942932,0.7908760905265808,0.23346827924251556,0.2318870723247528,0.16220298409461975,0.5991831421852112,0.2187013477087021,0.40158748626708984,0.9080946180555556,0.0,0.6909722222222222,0.6898871527777778,0.019607843831181526,1.0
24407,1.0,0.7117008566856384,0.48638513684272766,0.7843894958496094,0.2372489720582962,0.23190651834011078,0.16432306170463562,0.5877270102500916,0.21975070238113403,0.4153497517108917,0.9079861111111112,0.0,0.6773003472222222,0.6676432291666666,0.007843137718737125,1.0
24438,1.0,0.7076168060302734,0.4599490761756897,0.7797248959541321,0.2194167822599411,0.2145729660987854,0.15370428562164307,0.5704560875892639,0.20312562584877014,0.44129467010498047,0.9262152777777778,0.0,0.7488064236111112,0.6810980902777778,0.003921568859368563,1.0
24643,1.0,0.7447597980499268,0.5186129808425903,0.8077882528305054,0.2222539782524109,0.2257073074579239,0.15462104976177216,0.6191968321800232,0.21016843616962433,0.3894960582256317,0.9059244791666666,0.00010850694444444444,0.6843532986111112,0.7482638888888888,0.003921568859368563,1.0
24834,1.0,0.6571904420852661,0.43859484791755676,0.7468060255050659,0.2450064718723297,0.2370535284280777,0.1710803210735321,0.5390909910202026,0.22634421288967133,0.45248639583587646,0.9146050347222222,0.0,0.7430555555555556,0.5500217013888888,0.0313725508749485,1.0
24842,1.0,0.7126731872558594,0.4826333820819855,0.7840039730072021,0.23618248105049133,0.23566444218158722,0.16501320898532867,0.5857715606689453,0.22179383039474487,0.4209667444229126,0.9079861111111112,0.00021701388888888888,0.7001953125,0.6561414930555556,0.0117647061124444,1.0
24962,1.0,0.7027629017829895,0.45564916729927063,0.7753761410713196,0.23432625830173492,0.22066937386989594,0.1597565859556198,0.5659850835800171,0.21105380356311798,0.44522175192832947,0.9245876736111112,0.0003255208333333333,0.6448567708333334,0.6165364583333334,0.0117647061124444,1.0
24980,1.0,0.7275169491767883,0.47033336758613586,0.7926785945892334,0.21591581404209137,0.20920775830745697,0.14654073119163513,0.5839785933494568,0.19748099148273468,0.43474799394607544,0.9248046875,0.0,0.6531032986111112,0.6780598958333334,0.0117647061124444,1.0
25004,1.0,0.6574253439903259,0.4123893976211548,0.744253396987915,0.23590391874313354,0.21284398436546326,0.16052879393100739,0.5234876275062561,0.20713016390800476,0.478039413690567,0.9315321180555556,0.00043402777777777775,0.7175564236111112,0.509765625,0.007843137718737125,1.0
25005,1.0,0.748995304107666,0.49176883697509766,0.8074853420257568,0.20690928399562836,0.2118806391954422,0.14192914962768555,0.6046712398529053,0.19579724967479706,0.41866642236709595,0.9166666666666666,0.0,0.6362847222222222,0.7314453125,0.0235294122248888,1.0
25071,1.0,0.7637795209884644,0.5054394006729126,0.8144131302833557,0.22847792506217957,0.23038601875305176,0.15692850947380066,0.6179061532020569,0.21490147709846497,0.4137386083602905,0.9059244791666666,0.0005425347222222222,0.4966362847222222,0.6930338541666666,0.0117647061124444,1.0
25172,1.0,0.7708364129066467,0.5687521696090698,0.8269221186637878,0.22354139387607574,0.2691418528556824,0.15968959033489227,0.6586067080497742,0.23672395944595337,0.35063230991363525,0.7698567708333334,0.0,0.6749131944444444,0.7625868055555556,0.019607843831181526,1.0
25174,1.0,0.7430734038352966,0.4790321886539459,0.8020016551017761,0.2121424674987793,0.21129152178764343,0.14442390203475952,0.5947990417480469,0.19675549864768982,0.4305553138256073,0.9230685763888888,0.0,0.6203342013888888,0.6998697916666666,0.04313725605607033,1.0
25185,1.0,0.7039177417755127,0.5372864603996277,0.7860387563705444,0.2438032180070877,0.28265222907066345,0.17605100572109222,0.6154669523239136,0.2546396553516388,0.3645884096622467,0.7936197916666666,0.0,0.8228081597222222,0.6704644097222222,0.0235294122248888,1.0
25201,1.0,0.7101308107376099,0.46365272998809814,0.780524492263794,0.23070091009140015,0.22352400422096252,0.15949757397174835,0.5734730362892151,0.21180318295955658,0.43953534960746765,0.9174262152777778,0.0,0.6685112847222222,0.6509331597222222,0.019607843831181526,1.0
25366,1.0,0.7212805151939392,0.47593486309051514,0.7892063856124878,0.22569803893566132,0.21815147995948792,0.15379229187965393,0.5850061774253845,0.20605403184890747,0.4272759258747101,0.9190538194444444,0.00010850694444444444,0.6532118055555556,0.6684027777777778,0.019607843831181526,1.0
25408,1.0,0.8064372539520264,0.6071913242340088,0.8527249693870544,0.20288535952568054,0.23372291028499603,0.14453506469726562,0.6947566270828247,0.20850279927253723,0.31757381558418274,0.8351779513888888,0.0,0.6985677083333334,0.8287760416666666,0.01568627543747425,1.0
25424,1.0,0.6970332860946655,0.4464533030986786,0.7738068103790283,0.21021367609500885,0.20350049436092377,0.14312498271465302,0.5586950778961182,0.19243182241916656,0.4499753713607788,0.9309895833333334,0.00010850694444444444,0.7325303819444444,0.6235894097222222,0.019607843831181526,1.0
25428,1.0,0.7230881452560425,0.4830150604248047,0.7909786701202393,0.22723251581192017,0.22223784029483795,0.15578114986419678,0.58990478515625,0.20951303839683533,0.4204927682876587,0.9142795138888888,0.0,0.6768663194444444,0.6807725694444444,0.019607843831181526,1.0
25452,1.0,0.7281084656715393,0.5111157894134521,0.79816734790802,0.2235700488090515,0.23152336478233337,0.15607474744319916,0.6087204813957214,0.2151552438735962,0.39280539751052856,0.9015842013888888,0.0,0.7356770833333334,0.7139756944444444,0.0235294122248888,1.0
25521,1.0,0.7373634576797485,0.4796462655067444,0.7985196113586426,0.2238832414150238,0.20931951701641083,0.15045592188835144,0.5930553078651428,0.19995158910751343,0.4280139207839966,0.9291449652777778,0.00010850694444444444,0.5766059027777778,0.6863064236111112,0.01568627543747425,1.0
25523,1.0,0.7228226661682129,0.48171722888946533,0.7909424304962158,0.2227402925491333,0.22320246696472168,0.15406693518161774,0.5890594124794006,0.2088567018508911,0.4227032959461212,0.9143880208333334,0.0,0.6859809027777778,0.6860894097222222,0.019607843831181526,1.0
25686,1.0,0.7406612038612366,0.5009672045707703,0.8025620579719543,0.22942452132701874,0.22473357617855072,0.15687638521194458,0.6070175170898438,0.21174676716327667,0.40821877121925354,0.9105902777777778,0.0,0.5889756944444444,0.7069227430555556,0.027450980618596077,1.0
25854,1.0,0.6835592985153198,0.49916136264801025,0.7723256945610046,0.23082277178764343,0.2416512370109558,0.1640503853559494,0.5854370594024658,0.2254313975572586,0.39205777645111084,0.8931206597222222,0.00010850694444444444,0.8616536458333334,0.6450737847222222,0.0117647061124444,1.0
25891,1.0,0.6940265893936157,0.5000791549682617,0.7768484354019165,0.23675450682640076,0.24671824276447296,0.16855092346668243,0.5896211266517639,0.23014572262763977,0.39649146795272827,0.8892144097222222,0.0,0.8095703125,0.6548394097222222,0.0235294122248888,1.0
25989,1.0,0.7165288329124451,0.4702776372432709,0.7851898670196533,0.23330432176589966,0.2190636694431305,0.1582438349723816,0.5798066854476929,0.20957258343696594,0.43278631567955017,0.9220920138888888,0.0003255208333333333,0.6189236111111112,0.6482204861111112,0.007843137718737125,1.0
26079,1.0,0.6936218738555908,0.47632843255996704,0.7738128304481506,0.22503069043159485,0.24196875095367432,0.16066116094589233,0.5752123594284058,0.2219751626253128,0.4217349588871002,0.8927951388888888,0.0,0.8420138888888888,0.6511501736111112,0.0470588244497776,1.0
26083,1.0,0.8236881494522095,0.6991732716560364,0.8741885423660278,0.2012738287448883,0.2494269460439682,0.14292922616004944,0.7563549280166626,0.21953611075878143,0.2301214039325714,0.6856553819444444,0.00021701388888888888,0.6808810763888888,0.8592664930555556,0.01568627543747425,1.0
26141,1.0,0.8340899348258972,0.6634961366653442,0.8734047412872314,0.19271253049373627,0.2736123204231262,0.14072030782699585,0.7384332418441772,0.22790737450122833,0.2730497717857361,0.6404079861111112,0.0003255208333333333,0.6889105902777778,0.8637152777777778,0.007843137718737125,1.0
26179,1.0,0.7391646504402161,0.48613622784614563,0.8007692694664001,0.21414975821971893,0.21175383031368256,0.1480501890182495,0.5976598858833313,0.19781675934791565,0.42087522149086,0.9255642361111112,0.0,0.7186414930555556,0.7160373263888888,0.0235294122248888,1.0
26183,1.0,0.7371557354927063,0.5019407868385315,0.8027527332305908,0.21019577980041504,0.21840348839759827,0.1456356942653656,0.606562614440918,0.2008477747440338,0.4025217294692993,0.9078776041666666,0.0,0.7768012152777778,0.7366536458333334,0.027450980618596077,1.0
26192,1.0,0.8279505968093872,0.6313619017601013,0.8669492602348328,0.18613232672214508,0.2556578516960144,0.13602492213249207,0.7169988751411438,0.21457548439502716,0.3016146123409271,0.7213541666666666,0.0,0.6838107638888888,0.8664279513888888,0.019607843831181526,1.0
26206,1.0,0.7538449764251709,0.4937576651573181,0.8092567324638367,0.2069692462682724,0.22188882529735565,0.14510926604270935,0.6074906587600708,0.20036596059799194,0.4177789092063904,0.9007161458333334,0.0,0.7298177083333334,0.7582465277777778,0.027450980618596077,1.0
26387,1.0,0.7735639214515686,0.5600197315216064,0.8290079832077026,0.2096489518880844,0.23836784064769745,0.14975124597549438,0.654534101486206,0.21435202658176422,0.35716426372528076,0.8608940972222222,0.0,0.7561848958333334,0.7897135416666666,0.019607843831181526,1.0
26514,1.0,0.704979419708252,0.4855528473854065,0.7818815112113953,0.22270768880844116,0.2334907501935959,0.15783503651618958,0.5849428772926331,0.21606607735157013,0.4136918783187866,0.9022352430555556,0.0,0.8336588541666666,0.6826171875,0.01568627543747425,1.0
26535,1.0,0.7212435603141785,0.4866800308227539,0.7900986075401306,0.22625237703323364,0.2341608852148056,0.15829159319400787,0.5914042592048645,0.21711480617523193,0.4185835123062134,0.9096137152777778,0.0,0.7169053819444444,0.6730685763888888,0.0313725508749485,1.0
26542,1.0,0.757904052734375,0.5298253893852234,0.8167892098426819,0.2178669571876526,0.22103895246982574,0.15079893171787262,0.6307348012924194,0.2058354765176773,0.38081640005111694,0.9125434027777778,0.00043402777777777775,0.6931423611111112,0.7621527777777778,0.0117647061124444,1.0
26600,1.0,0.8057083487510681,0.539164662361145,0.8419440984725952,0.2096884548664093,0.21728408336639404,0.14469818770885468,0.6533780694007874,0.1984969973564148,0.38870859146118164,0.9020182291666666,0.00021701388888888888,0.4388020833333333,0.8047960069444444,0.01568627543747425,1.0
26646,1.0,0.7053568363189697,0.49436575174331665,0.7809257507324219,0.23652304708957672,0.2574056088924408,0.17022818326950073,0.5901198983192444,0.23592539131641388,0.4097217321395874,0.8723958333333334,0.0,0.8090277777777778,0.6600477430555556,0.019607843831181526,1.0
26701,1.0,0.7522174119949341,0.47293752431869507,0.8036049604415894,0.22599563002586365,0.21541662514209747,0.1552475392818451,0.5941383838653564,0.20364487171173096,0.4417380392551422,0.9231770833333334,0.0,0.5813802083333334,0.7099609375,0.03529411926865578,1.0
26725,1.0,0.7710167765617371,0.5020638108253479,0.8165841102600098,0.23689274489879608,0.22938582301139832,0.16170448064804077,0.618336021900177,0.21632260084152222,0.41993874311447144,0.9072265625,0.0,0.4312065972222222,0.7054036458333334,0.04313725605607033,1.0
26798,1.0,0.7939550876617432,0.5179641246795654,0.8317984938621521,0.22519110143184662,0.2180231809616089,0.15295198559761047,0.6362625956535339,0.20527383685112,0.4090181589126587,0.9212239583333334,0.0,0.3777126736111111,0.7430555555555556,0.019607843831181526,1.0
26829,1.0,0.6868196129798889,0.48387420177459717,0.7748255133628845,0.2132907509803772,0.21464358270168304,0.14675185084342957,0.5777232646942139,0.20140916109085083,0.403059184551239,0.9063585069444444,0.0,0.8283420138888888,0.6970486111111112,0.0470588244497776,1.0
26903,1.0,0.737605094909668,0.4731038808822632,0.7958661317825317,0.23466987907886505,0.2204747051000595,0.1600075662136078,0.5889846682548523,0.2110103964805603,0.43854978680610657,0.9241536458333334,0.0015190972222222222,0.5440538194444444,0.6554904513888888,0.003921568859368563,1.0
26943,1.0,0.7734949588775635,0.511040449142456,0.8176449537277222,0.2474484145641327,0.24250678718090057,0.1700613796710968,0.6244672536849976,0.2290772646665573,0.414718896150589,0.9163411458333334,0.0,0.3873697916666667,0.6625434027777778,0.05098039284348488,0.9960784316062927
26973,1.0,0.7394910454750061,0.46884530782699585,0.7948504686355591,0.24394887685775757,0.22887656092643738,0.1659316122531891,0.586932897567749,0.21945589780807495,0.44672954082489014,0.9235026041666666,0.00043402777777777775,0.4852430555555556,0.6185980902777778,0.003921568859368563,1.0
27051,1.0,0.7442904114723206,0.5733451843261719,0.8134685158729553,0.230115607380867,0.2943199574947357,0.1653568595647812,0.651831865310669,0.2555086612701416,0.33966168761253357,0.7111545138888888,0.00043402777777777775,0.7854817708333334,0.6982421875,0.01568627543747425,1.0
27063,1.0,0.7299730777740479,0.474822998046875,0.7955831289291382,0.20062197744846344,0.21954259276390076,0.13836094737052917,0.5876795053482056,0.19747954607009888,0.43002304434776306,0.8967013888888888,0.00010850694444444444,0.7465277777777778,0.6846788194444444,0.019607843831181526,1.0
27081,1.0,0.7315210700035095,0.5256850719451904,0.8026373386383057,0.21947884559631348,0.23319324851036072,0.1537390947341919,0.6188026666641235,0.21417443454265594,0.37628862261772156,0.8620876736111112,0.0,0.82421875,0.7414279513888888,0.027450980618596077,1.0
27174,1.0,0.6996438503265381,0.48085811734199524,0.7800776958465576,0.20988163352012634,0.23177944123744965,0.14724858105182648,0.5803860425949097,0.20889624953269958,0.4138166010379791,0.8712022569444444,0.0,0.8651258680555556,0.6818576388888888,0.0235294122248888,1.0
27214,1.0,0.7751387357711792,0.654399037361145,0.8386566042900085,0.24294720590114594,0.32232236862182617,0.17506280541419983,0.7115055918693542,0.27823135256767273,0.2704353332519531,0.5343967013888888,0.0,0.7625868055555556,0.7230902777777778,0.03529411926865578,1.0
27296,1.0,0.7461733222007751,0.5139807462692261,0.8052411675453186,0.24831463396549225,0.23426510393619537,0.17063157260417938,0.6166101098060608,0.22604936361312866,0.3985588848590851,0.9168836805555556,0.001193576388888889,0.4844835069444444,0.6817491319444444,0.007843137718737125,1.0
27317,1.0,0.632538914680481,0.42163586616516113,0.7344367504119873,0.2228216826915741,0.2048657238483429,0.15441232919692993,0.5203551650047302,0.1986415535211563,0.45440441370010376,0.9337022569444444,0.0,0.8626302083333334,0.5902777777777778,0.0313725508749485,1.0
27362,1.0,0.8254366517066956,0.6755532026290894,0.8698402047157288,0.2030811607837677,0.28156495094299316,0.14950768649578094,0.7425171136856079,0.23859386146068573,0.26100099086761475,0.5936414930555556,0.00021701388888888888,0.7260199652777778,0.8181423611111112,0.01568627543747425,1.0
27364,1.0,0.6587193012237549,0.4358864724636078,0.749027669429779,0.23760056495666504,0.22076448798179626,0.1628674864768982,0.5382115840911865,0.2132902592420578,0.45075199007987976,0.9217664930555556,0.00021701388888888888,0.763671875,0.5789930555555556,0.01568627543747425,1.0
27565,1.0,0.6781318187713623,0.4213622510433197,0.7565683126449585,0.23196730017662048,0.22393855452537537,0.15923815965652466,0.5363498330116272,0.21136435866355896,0.47571930289268494,0.9152560763888888,0.0,0.7267795138888888,0.5462239583333334,0.027450980618596077,1.0
27628,1.0,0.7447099685668945,0.49055904150009155,0.7996867895126343,0.25345364212989807,0.24123515188694,0.17376413941383362,0.6017906665802002,0.23082397878170013,0.4266001582145691,0.9152560763888888,0.0,0.458984375,0.6365017361111112,0.027450980618596077,0.9960784316062927
27645,1.0,0.6902446150779724,0.5168964266777039,0.7783135175704956,0.23556526005268097,0.26081138849258423,0.1653270572423935,0.5985291004180908,0.23788581788539886,0.37510088086128235,0.8070746527777778,0.0,0.7972005208333334,0.6708984375,0.03921568766236305,1.0
27660,1.0,0.7816014885902405,0.579143762588501,0.8371565937995911,0.1885603368282318,0.2483552247285843,0.13825833797454834,0.669092059135437,0.2125312089920044,0.3384864032268524,0.7877604166666666,0.0,0.8489583333333334,0.8162977430555556,0.03921568766236305,1.0
27734,1.0,0.9045585989952087,0.8268923163414001,0.9269952774047852,0.18883658945560455,0.2825307250022888,0.14118848741054535,0.8615262508392334,0.23418693244457245,0.1412680745124817,0.2702907986111111,0.0,0.4144965277777778,0.8800998263888888,0.0313725508749485,1.0
27858,1.0,0.6335044503211975,0.45121315121650696,0.7392246723175049,0.23060862720012665,0.22460612654685974,0.16029290854930878,0.5385515689849854,0.2149593085050583,0.42310458421707153,0.9104817708333334,0.0,0.833984375,0.5882161458333334,0.027450980618596077,1.0
27869,1.0,0.6607604622840881,0.4872332215309143,0.7575958967208862,0.23783282935619354,0.26058733463287354,0.16812118887901306,0.5699391961097717,0.23858894407749176,0.39797067642211914,0.8286675347222222,0.0,0.8434244791666666,0.6131727430555556,0.027450980618596077,1.0
27934,1.0,0.672522246837616,0.44998252391815186,0.7589857578277588,0.22253215312957764,0.251827597618103,0.15626077353954315,0.5517482757568359,0.22520411014556885,0.44301074743270874,0.8562282986111112,0.0,0.8365885416666666,0.5697699652777778,0.0470588244497776,1.0
28093,1.0,0.777039110660553,0.518407940864563,0.8237864971160889,0.223330557346344,0.22410470247268677,0.15290048718452454,0.630551815032959,0.20956408977508545,0.4033036530017853,0.9205729166666666,0.00010850694444444444,0.4666883680555556,0.7260199652777778,0.019607843831181526,1.0
28233,1.0,0.6746710538864136,0.4144935607910156,0.7527394890785217,0.24050059914588928,0.21815119683742523,0.16449855268001556,0.5308467149734497,0.21134404838085175,0.48275962471961975,0.9300130208333334,0.0,0.6957465277777778,0.5396050347222222,0.05098039284348488,1.0
28243,1.0,0.7770340442657471,0.5762467384338379,0.832760214805603,0.21277128159999847,0.2676102817058563,0.14993679523468018,0.6655246615409851,0.23258014023303986,0.3437156081199646,0.7379557291666666,0.0,0.6223958333333334,0.7514105902777778,0.027450980618596077,1.0
28367,1.0,0.7942180633544922,0.6137403845787048,0.8433113098144531,0.2250235676765442,0.29915159940719604,0.16500920057296753,0.6938742399215698,0.25482553243637085,0.31615394353866577,0.65625,0.00010850694444444444,0.7523871527777778,0.7722439236111112,0.01568627543747425,1.0
28411,1.0,0.7145578265190125,0.5267595052719116,0.7941687107086182,0.22397081553936005,0.22738313674926758,0.15502920746803284,0.6133959293365479,0.21203216910362244,0.36612048745155334,0.8755425347222222,0.0005425347222222222,0.8074001736111112,0.7198350694444444,0.0117647061124444,1.0
28474,1.0,0.6500833630561829,0.4022156596183777,0.7376536130905151,0.23997928202152252,0.21839101612567902,0.16480354964733124,0.5145680904388428,0.21156145632266998,0.4882160723209381,0.9283854166666666,0.0,0.7518446180555556,0.5119357638888888,0.04313725605607033,1.0
28516,1.0,0.7473976016044617,0.5146408081054688,0.8106873035430908,0.21129681169986725,0.20753046870231628,0.14313967525959015,0.617984414100647,0.19551299512386322,0.39123010635375977,0.9176432291666666,0.0,0.6659071180555556,0.7577039930555556,0.03529411926865578,1.0
28580,1.0,0.7584354877471924,0.47780969738960266,0.8066946864128113,0.2349117398262024,0.22270631790161133,0.15980583429336548,0.5992096662521362,0.21190273761749268,0.4416794776916504,0.9281684027777778,0.00010850694444444444,0.4588758680555556,0.6483289930555556,0.019607843831181526,1.0
28629,1.0,0.7557632327079773,0.5430904626846313,0.8174121975898743,0.22916781902313232,0.21849972009658813,0.1553928703069687,0.6379522681236267,0.20913179218769073,0.3652157485485077,0.9083116319444444,0.00010850694444444444,0.5844184027777778,0.7598741319444444,0.019607843831181526,1.0
28672,1.0,0.6789003014564514,0.4425390064716339,0.7592635154724121,0.24010516703128815,0.2428794503211975,0.16711774468421936,0.5493175983428955,0.22689186036586761,0.4550754129886627,0.8996310763888888,0.0,0.7360026041666666,0.5558810763888888,0.03921568766236305,1.0
28721,1.0,0.7649876475334167,0.502257764339447,0.8135191798210144,0.23186251521110535,0.24182535707950592,0.16105808317661285,0.6162978410720825,0.22246678173542023,0.41945868730545044,0.8871527777777778,0.0,0.4998914930555556,0.6925998263888888,0.03921568766236305,1.0
28832,1.0,0.6841307878494263,0.45022550225257874,0.7674763798713684,0.20873534679412842,0.215992271900177,0.14587117731571198,0.5563297867774963,0.20036432147026062,0.442654013633728,0.9229600694444444,0.0,0.8433159722222222,0.6373697916666666,0.054901961237192154,1.0
28907,1.0,0.8567644953727722,0.7980014085769653,0.8988919854164124,0.22071638703346252,0.27368617057800293,0.1632704734802246,0.8270730376243591,0.24426782131195068,0.15268318355083466,0.2913411458333333,0.0007595486111111111,0.7241753472222222,0.8627387152777778,0.0,1.0
28912,1.0,0.9111754298210144,0.819447934627533,0.9318488240242004,0.1642879843711853,0.23728367686271667,0.1230626031756401,0.8596881031990051,0.19793182611465454,0.14509831368923187,0.3583984375,0.00010850694444444444,0.6549479166666666,0.9283854166666666,0.007843137718737125,1.0
28948,1.0,0.8687036037445068,0.8060436248779297,0.9080920815467834,0.20002754032611847,0.2529304325580597,0.14569614827632904,0.8364124894142151,0.2227637618780136,0.14378659427165985,0.3267144097222222,0.0,0.794921875,0.8942057291666666,0.0117647061124444,1.0
29043,1.0,0.7052518129348755,0.43829530477523804,0.775355339050293,0.21439959108829498,0.21125437319278717,0.14765045046806335,0.5565401911735535,0.19618171453475952,0.46101856231689453,0.9201388888888888,0.0,0.7907986111111112,0.6432291666666666,0.027450980618596077,1.0
29075,1.0,0.6316729784011841,0.40045273303985596,0.7260621190071106,0.256168931722641,0.21300125122070312,0.17490741610527039,0.5067070722579956,0.21626706421375275,0.48428332805633545,0.9447699652777778,0.0,0.7088758680555556,0.4874131944444444,0.05882352963089943,0.9960784316062927
29241,1.0,0.7530972957611084,0.48302310705184937,0.8085545897483826,0.20745109021663666,0.19840401411056519,0.13932228088378906,0.6008858680725098,0.18710651993751526,0.4270353317260742,0.927734375,0.0,0.5723741319444444,0.7316623263888888,0.03921568766236305,0.9960784316062927
29316,1.0,0.7210741639137268,0.4414623975753784,0.7815385460853577,0.23426513373851776,0.21950958669185638,0.16085368394851685,0.5638349652290344,0.20919513702392578,0.46727338433265686,0.9240451388888888,0.0,0.6274956597222222,0.6139322916666666,0.05098039284348488,1.0
29394,1.0,0.7392884492874146,0.4564019441604614,0.7954809665679932,0.22341202199459076,0.2017292082309723,0.1495848298072815,0.5796400308609009,0.1944923996925354,0.45352792739868164,0.9320746527777778,0.0,0.5574001736111112,0.6648220486111112,0.03529411926865578,1.0
29525,1.0,0.7582886219024658,0.4615838825702667,0.8037101030349731,0.2360733151435852,0.21167141199111938,0.1605609655380249,0.5893009901046753,0.20582428574562073,0.4584353268146515,0.9381510416666666,0.0,0.4399956597222222,0.6635199652777778,0.0470588244497776,0.9960784316062927
29639,1.0,0.7482919692993164,0.47012314200401306,0.8011990785598755,0.2308599352836609,0.21108384430408478,0.156484454870224,0.5910382866859436,0.2036879062652588,0.4438270330429077,0.9337022569444444,0.0,0.5078125,0.6752387152777778,0.03921568766236305,1.0
29645,1.0,0.8110141158103943,0.6274863481521606,0.8553377389907837,0.21066081523895264,0.2917310297489166,0.15348243713378906,0.7083361744880676,0.24531374871730804,0.3052111864089966,0.6494140625,0.0,0.7404513888888888,0.7736545138888888,0.062745101749897,1.0
29785,1.0,0.7797658443450928,0.5096967220306396,0.8246562480926514,0.216945618391037,0.2071925699710846,0.14740270376205444,0.6263527274131775,0.1965292990207672,0.40924307703971863,0.9261067708333334,0.0005425347222222222,0.4669053819444444,0.7465277777777778,0.01568627543747425,0.9960784316062927
29839,1.0,0.746073842048645,0.48767104744911194,0.8044708967208862,0.2194734811782837,0.20796802639961243,0.14880824089050293,0.6010487079620361,0.1978527456521988,0.42077717185020447,0.9225260416666666,0.0,0.6208767361111112,0.7060546875,0.027450980618596077,0.9960784316062927
29931,1.0,0.7357145547866821,0.45775848627090454,0.7934534549713135,0.22648745775222778,0.2064313441514969,0.15234367549419403,0.5791366100311279,0.1988658756017685,0.45140013098716736,0.935546875,0.0,0.5394965277777778,0.6409505208333334,0.0313725508749485,1.0
30032,1.0,0.8005383014678955,0.5398612022399902,0.8373267650604248,0.23138725757598877,0.23185542225837708,0.15953944623470306,0.6517147421836853,0.21643461287021637,0.3904634416103363,0.9040798611111112,0.0,0.3626302083333333,0.7575954861111112,0.03529411926865578,1.0
30044,1.0,0.8082073330879211,0.5329138040542603,0.8424896001815796,0.20969443023204803,0.20854897797107697,0.14331486821174622,0.6505182385444641,0.19369558990001678,0.39436811208724976,0.9159071180555556,0.00021701388888888888,0.3650173611111111,0.7976345486111112,0.0235294122248888,0.9960784316062927
30151,1.0,0.7824601531028748,0.5123166441917419,0.8268349170684814,0.21268224716186523,0.21206963062286377,0.14422070980072021,0.6289446353912354,0.19775521755218506,0.4088360071182251,0.9172092013888888,0.0,0.4588758680555556,0.7439236111111112,0.03529411926865578,1.0
30184,1.0,0.7657075524330139,0.4814870059490204,0.8126170635223389,0.21973572671413422,0.210109680891037,0.14944657683372498,0.6042177677154541,0.19834083318710327,0.4357006549835205,0.9223090277777778,0.0,0.5094401041666666,0.7192925347222222,0.03529411926865578,1.0
30212,1.0,0.6913667321205139,0.45026078820228577,0.7709120512008667,0.20701926946640015,0.22768759727478027,0.14384739100933075,0.5589057207107544,0.2042553722858429,0.44471311569213867,0.8919270833333334,0.0,0.8483072916666666,0.6011284722222222,0.054901961237192154,1.0
30222,1.0,0.7012560963630676,0.4883357286453247,0.7793058753013611,0.2258572280406952,0.2521728277206421,0.1626265048980713,0.5851694941520691,0.22848258912563324,0.41234245896339417,0.8680555555555556,0.0,0.8498263888888888,0.6784939236111112,0.054901961237192154,1.0
30302,1.0,0.7917279601097107,0.517540693283081,0.8319133520126343,0.21439620852470398,0.20918086171150208,0.14560215175151825,0.6353611946105957,0.19658857583999634,0.4069753885269165,0.9246961805555556,0.001193576388888889,0.4251302083333333,0.7560763888888888,0.007843137718737125,1.0
30334,1.0,0.778337299823761,0.4875757396221161,0.8212341666221619,0.20511841773986816,0.20479372143745422,0.1395675241947174,0.6125504970550537,0.18992993235588074,0.43249592185020447,0.9223090277777778,0.0,0.4867621527777778,0.7278645833333334,0.027450980618596077,1.0
30490,1.0,0.7080338001251221,0.4424645006656647,0.7771233320236206,0.22068268060684204,0.21604286134243011,0.1506885290145874,0.5600208044052124,0.20291338860988617,0.4604203402996063,0.921875,0.0,0.6806640625,0.5894097222222222,0.03529411926865578,1.0
30562,1.0,0.7273824214935303,0.4661233127117157,0.7902003526687622,0.23131921887397766,0.2149677872657776,0.15672913193702698,0.5811845660209656,0.20644739270210266,0.4406411647796631,0.9235026041666666,0.0003255208333333333,0.6030815972222222,0.6598307291666666,0.0235294122248888,1.0
30671,1.0,0.7815619111061096,0.5073308348655701,0.8268046379089355,0.20279037952423096,0.19739162921905518,0.13649410009384155,0.625745952129364,0.18503636121749878,0.41132980585098267,0.9310980902777778,0.00021701388888888888,0.5009765625,0.7829861111111112,0.019607843831181526,0.9960784316062927
