index,label,mean_r,mean_g,mean_b,std_r,std_g,std_b,mean_gray,std_gray,sat_mean,tissue_proxy_ratio_sat_gt_0p12,black_ratio_gray_lt_0p05,blue_dominance_ratio_b_gt_r,pink_proxy_ratio,min_pixel,max_pixel
46,0.0,0.6727763414382935,0.5869663953781128,0.7776254415512085,0.2512362599372864,0.27889275550842285,0.1784529834985733,0.6343587040901184,0.2582883834838867,0.2930871546268463,0.7197265625,0.0,0.8046875,0.6370442708333334,0.019607843831181526,1.0
124,1.0,0.631192147731781,0.5373204350471497,0.7464001178741455,0.2595149576663971,0.2810589373111725,0.18682916462421417,0.5892231464385986,0.2632817029953003,0.334026575088501,0.7872178819444444,0.0,0.8293185763888888,0.5736762152777778,0.0235294122248888,1.0
128,0.0,0.5532326698303223,0.46443694829940796,0.6896918416023254,0.2655719518661499,0.28294995427131653,0.193424254655838,0.5166659355163574,0.26698988676071167,0.38785502314567566,0.8296440972222222,0.0,0.85546875,0.4265407986111111,0.04313725605607033,1.0
455,1.0,0.7974873185157776,0.6878931522369385,0.8586086630821228,0.21470437943935394,0.24681031703948975,0.15389448404312134,0.740123450756073,0.2251821607351303,0.23367346823215485,0.6648220486111112,0.001193576388888889,0.6629774305555556,0.8504774305555556,0.0,1.0
499,1.0,0.7106302976608276,0.530686616897583,0.7887153029441833,0.2412658929824829,0.283304363489151,0.17393594980239868,0.6139050722122192,0.25411456823349,0.37496405839920044,0.7886284722222222,0.00043402777777777775,0.7670355902777778,0.6545138888888888,0.0,1.0
537,0.0,0.6189759373664856,0.5362331867218018,0.7374310493469238,0.2744140625,0.2973438799381256,0.19608986377716064,0.5839098691940308,0.27830174565315247,0.3323739171028137,0.7366536458333334,0.0,0.7815755208333334,0.5198567708333334,0.0313725508749485,1.0
538,1.0,0.7345741987228394,0.49928390979766846,0.8008382320404053,0.21500636637210846,0.20601768791675568,0.15001395344734192,0.6040128469467163,0.197953999042511,0.4061882793903351,0.9282769097222222,0.0013020833333333333,0.6866319444444444,0.7578125,0.0,1.0
722,1.0,0.727357804775238,0.5227448344230652,0.800182580947876,0.21499893069267273,0.24264155328273773,0.15163612365722656,0.6155519485473633,0.2195722907781601,0.3816153407096863,0.8653428819444444,0.00010850694444444444,0.7471788194444444,0.7065972222222222,0.0,1.0
726,1.0,0.7173006534576416,0.5676959753036499,0.799769401550293,0.23098619282245636,0.25718098878860474,0.1668456345796585,0.6388842463493347,0.23681123554706573,0.33252429962158203,0.8233506944444444,0.0003255208333333333,0.7828776041666666,0.7505425347222222,0.0,1.0
789,1.0,0.8454205989837646,0.7794356346130371,0.8935176134109497,0.19554556906223297,0.25548720359802246,0.14601776003837585,0.8121704459190369,0.22306343913078308,0.16160857677459717,0.2841796875,0.0,0.8648003472222222,0.8697916666666666,0.019607843831181526,1.0
938,0.0,0.7141271829605103,0.639845073223114,0.8023548126220703,0.27538713812828064,0.3175870180130005,0.19775591790676117,0.6805815100669861,0.2904888689517975,0.26249954104423523,0.5912543402777778,0.0,0.8121744791666666,0.6703559027777778,0.01568627543747425,1.0
1004,0.0,0.9663884043693542,0.8300670981407166,0.9608316421508789,0.10012226551771164,0.176984965801239,0.09410512447357178,0.8857342600822449,0.13551728427410126,0.15345747768878937,0.3949652777777778,0.009548611111111112,0.010416666666666666,0.9869791666666666,0.0,1.0
1088,1.0,0.6475647687911987,0.4631425440311432,0.7468903660774231,0.23623572289943695,0.23334556818008423,0.16913311183452606,0.5506319999694824,0.2240455001592636,0.4205836057662964,0.9153645833333334,0.00010850694444444444,0.826171875,0.6241319444444444,0.0,1.0
1152,1.0,0.6772475838661194,0.5985978841781616,0.7795565128326416,0.2606906294822693,0.2937532663345337,0.1875208616256714,0.6427434682846069,0.27054890990257263,0.2857024073600769,0.6830512152777778,0.0,0.8243272569444444,0.6401909722222222,0.027450980618596077,1.0
1153,0.0,0.613764226436615,0.5251162052154541,0.7319129705429077,0.27783676981925964,0.30069100856781006,0.19997985661029816,0.5751967430114746,0.2818177044391632,0.3455037474632263,0.7463107638888888,0.0,0.7881944444444444,0.517578125,0.0235294122248888,1.0
1245,1.0,0.7655547857284546,0.5208184719085693,0.8209248781204224,0.20551373064517975,0.19913117587566376,0.14049145579338074,0.628206729888916,0.18899385631084442,0.3909231424331665,0.9324001736111112,0.00043402777777777775,0.6305338541666666,0.7847222222222222,0.0,1.0
1291,1.0,0.5837350487709045,0.39189136028289795,0.7018092274665833,0.2176811397075653,0.2245534211397171,0.1575443297624588,0.4845832586288452,0.2114485502243042,0.4795696437358856,0.9207899305555556,0.0,0.8971354166666666,0.4678819444444444,0.007843137718737125,1.0
1403,1.0,0.733916699886322,0.5810150504112244,0.8096452355384827,0.23814380168914795,0.25749829411506653,0.16999414563179016,0.6527965068817139,0.23970869183540344,0.3248812258243561,0.8216145833333334,0.0006510416666666666,0.6902126736111112,0.7485894097222222,0.0,1.0
1406,1.0,0.8507927060127258,0.7576469779014587,0.8941453099250793,0.19770964980125427,0.24701474606990814,0.14442242681980133,0.8010584712028503,0.21816810965538025,0.18438315391540527,0.4526909722222222,0.0006510416666666666,0.6877170138888888,0.8848741319444444,0.0,1.0
1422,0.0,0.6930649280548096,0.5972988605499268,0.7880774736404419,0.2570059299468994,0.29574164748191833,0.18444953858852386,0.6476816534996033,0.2703721821308136,0.29566651582717896,0.6909722222222222,0.0,0.7501085069444444,0.6624348958333334,0.0235294122248888,1.0
1458,0.0,0.6038964986801147,0.502106785774231,0.7234562039375305,0.27194225788116455,0.2921772301197052,0.19680356979370117,0.5577757358551025,0.2743164598941803,0.36761438846588135,0.80078125,0.0,0.8077256944444444,0.5120442708333334,0.0313725508749485,1.0
1513,0.0,0.7117757797241211,0.5972371697425842,0.793589174747467,0.2812806963920593,0.33529672026634216,0.20378448069095612,0.6538683176040649,0.3022475838661194,0.3145991265773773,0.6290147569444444,0.00010850694444444444,0.7694227430555556,0.6446397569444444,0.003921568859368563,1.0
1527,0.0,0.6312738656997681,0.5447367429733276,0.7482941150665283,0.25436681509017944,0.2820681631565094,0.18268480896949768,0.5938169360160828,0.2616986632347107,0.32442447543144226,0.7644314236111112,0.00010850694444444444,0.8369140625,0.5673828125,0.0235294122248888,1.0
1529,0.0,0.6066576838493347,0.45311737060546875,0.7221201062202454,0.24438580870628357,0.24134299159049988,0.17530247569084167,0.5296922326087952,0.2330857664346695,0.4177842140197754,0.9153645833333334,0.00010850694444444444,0.8547092013888888,0.5291883680555556,0.01568627543747425,0.9960784316062927
1533,0.0,0.6557764410972595,0.4650552570819855,0.7509523630142212,0.2420421540737152,0.2364322394132614,0.17218850553035736,0.5546731352806091,0.22811833024024963,0.42255353927612305,0.91796875,0.00010850694444444444,0.7913411458333334,0.6090494791666666,0.003921568859368563,1.0
1699,1.0,0.847786545753479,0.7484928369522095,0.8900995254516602,0.20751239359378815,0.27256083488464355,0.1526874154806137,0.7943248152732849,0.23664917051792145,0.1961553692817688,0.4658203125,0.0009765625,0.7032335069444444,0.8663194444444444,0.0,1.0
1740,1.0,0.7241408824920654,0.5970860719680786,0.8071269989013672,0.2361833155155182,0.263409286737442,0.16978313028812408,0.659020185470581,0.24306900799274445,0.30356156826019287,0.7814670138888888,0.00021701388888888888,0.7737630208333334,0.7497829861111112,0.003921568859368563,1.0
1856,1.0,0.7046334743499756,0.5140752792358398,0.7863881587982178,0.2241951823234558,0.23896174132823944,0.15950389206409454,0.602095901966095,0.22222167253494263,0.38346049189567566,0.8965928819444444,0.00010850694444444444,0.7890625,0.6945529513888888,0.003921568859368563,1.0
1881,1.0,0.7065734267234802,0.48501715064048767,0.7837920188903809,0.22264523804187775,0.21013674139976501,0.15460847318172455,0.5853227972984314,0.20399779081344604,0.41271665692329407,0.9356553819444444,0.0007595486111111111,0.7316623263888888,0.6982421875,0.003921568859368563,1.0
1913,1.0,0.6112068295478821,0.5176407098770142,0.7312172055244446,0.2645769715309143,0.2907067835330963,0.19117961823940277,0.5699646472930908,0.2705615758895874,0.3505527675151825,0.7805989583333334,0.0,0.830078125,0.5223524305555556,0.0313725508749485,1.0
1961,0.0,0.6596038937568665,0.572770357131958,0.7643084526062012,0.27821362018585205,0.29926201701164246,0.19862422347068787,0.6205689311027527,0.28089240193367004,0.3094051480293274,0.6999782986111112,0.00010850694444444444,0.7457682291666666,0.5904947916666666,0.0117647061124444,1.0
1977,0.0,0.8158271312713623,0.7406812310218811,0.8763940334320068,0.1944471299648285,0.23181375861167908,0.13963520526885986,0.7786210179328918,0.20853474736213684,0.18330684304237366,0.5083550347222222,0.0014105902777777778,0.7483723958333334,0.8851996527777778,0.0,1.0
2001,0.0,0.8623238205909729,0.8048985004425049,0.9080052971839905,0.16372188925743103,0.1991075724363327,0.12223578244447708,0.8338229060173035,0.17774109542369843,0.13471798598766327,0.2854817708333333,0.003472222222222222,0.8083767361111112,0.9292534722222222,0.0,1.0
2005,0.0,0.6790573000907898,0.6026250720024109,0.7805594205856323,0.2668754756450653,0.2962513267993927,0.19041019678115845,0.6457628011703491,0.274425208568573,0.28209125995635986,0.6650390625,0.0,0.7747395833333334,0.6343315972222222,0.03529411926865578,1.0
2057,0.0,0.648340106010437,0.5296475291252136,0.7547109127044678,0.25516945123672485,0.2841387391090393,0.1841198205947876,0.5907938480377197,0.2629331350326538,0.3524966537952423,0.8004557291666666,0.0,0.7975260416666666,0.5930989583333334,0.019607843831181526,1.0
2235,1.0,0.7740476727485657,0.5348733067512512,0.8259978890419006,0.20712001621723175,0.2220320701599121,0.14670346677303314,0.6395747065544128,0.20369292795658112,0.38257619738578796,0.9019097222222222,0.0005425347222222222,0.681640625,0.7876519097222222,0.0,1.0
2265,1.0,0.6817682981491089,0.6004540324211121,0.7835447788238525,0.2535693943500519,0.2833574712276459,0.18128615617752075,0.6456393599510193,0.26180633902549744,0.28317227959632874,0.7033420138888888,0.0,0.8028428819444444,0.6598307291666666,0.019607843831181526,1.0
2300,1.0,0.6559381484985352,0.5344448089599609,0.7620561122894287,0.23883235454559326,0.26273006200790405,0.17156103253364563,0.5967190265655518,0.24400964379310608,0.34466564655303955,0.8374565972222222,0.0003255208333333333,0.8404947916666666,0.6252170138888888,0.007843137718737125,1.0
2308,1.0,0.7387583255767822,0.5819784998893738,0.8136906027793884,0.22471152245998383,0.2530626058578491,0.16092349588871002,0.6552708148956299,0.23177966475486755,0.32426542043685913,0.8224826388888888,0.00043402777777777775,0.7364366319444444,0.755859375,0.0,1.0
2319,1.0,0.6969073414802551,0.5437904000282288,0.7853567004203796,0.2370825707912445,0.25730860233306885,0.16961519420146942,0.6171109676361084,0.23948244750499725,0.3511204719543457,0.8486328125,0.00010850694444444444,0.7621527777777778,0.7006293402777778,0.0,1.0
2353,1.0,0.7004833817481995,0.5403751730918884,0.7872093915939331,0.23033946752548218,0.2565644085407257,0.1660560965538025,0.6163866519927979,0.2358812689781189,0.3557039797306061,0.8404947916666666,0.00021701388888888888,0.8081597222222222,0.7124565972222222,0.0,1.0
2407,1.0,0.6444972157478333,0.402039110660553,0.7345409393310547,0.23808865249156952,0.21637143194675446,0.16624219715595245,0.5124393105506897,0.21217909455299377,0.4897507429122925,0.9377170138888888,0.00043402777777777775,0.7427300347222222,0.5047743055555556,0.0,0.9960784316062927
2420,1.0,0.7826878428459167,0.5498621463775635,0.832769513130188,0.20450995862483978,0.22335976362228394,0.14531974494457245,0.6517283916473389,0.2037077099084854,0.3694494068622589,0.8930121527777778,0.0003255208333333333,0.6859809027777778,0.8009982638888888,0.0,1.0
2569,0.0,0.8414500951766968,0.7657544016838074,0.8897624611854553,0.20195549726486206,0.26102933287620544,0.14913688600063324,0.8025243282318115,0.22839073836803436,0.1742815226316452,0.3784722222222222,0.00043402777777777775,0.8249782986111112,0.8676215277777778,0.0,1.0
2608,0.0,0.7751898169517517,0.6961286067962646,0.8455265760421753,0.2395622581243515,0.2856109142303467,0.17219363152980804,0.7367992997169495,0.25782957673072815,0.22184011340141296,0.5275607638888888,0.0006510416666666666,0.7204861111111112,0.7809244791666666,0.0,1.0
2649,0.0,0.6481940746307373,0.49801287055015564,0.7533973455429077,0.2351440042257309,0.2387111932039261,0.16792277991771698,0.5720309019088745,0.22802448272705078,0.37978485226631165,0.9022352430555556,0.0,0.8493923611111112,0.6254340277777778,0.019607843831181526,1.0
2668,0.0,0.6206623315811157,0.5082631707191467,0.7351376414299011,0.2619735598564148,0.29322880506515503,0.18969710171222687,0.5677341222763062,0.27112236618995667,0.3680942952632904,0.7878689236111112,0.00021701388888888888,0.8325737847222222,0.5290798611111112,0.007843137718737125,1.0
2697,0.0,0.8396344780921936,0.7993570566177368,0.889939546585083,0.23792481422424316,0.2804679870605469,0.17185825109481812,0.821726381778717,0.25454163551330566,0.1433936208486557,0.2965494791666667,0.0,0.8200954861111112,0.8388671875,0.01568627543747425,1.0
2709,0.0,0.6489915251731873,0.549595296382904,0.7585495114326477,0.25462058186531067,0.27731040120124817,0.1830017864704132,0.6031355857849121,0.25905025005340576,0.3268655240535736,0.7846137152777778,0.0,0.8307291666666666,0.6062282986111112,0.0235294122248888,1.0
2790,1.0,0.6718988418579102,0.4489545226097107,0.7573848962783813,0.23375310003757477,0.2370072901248932,0.16550274193286896,0.550775945186615,0.22284087538719177,0.44564950466156006,0.9070095486111112,0.0005425347222222222,0.7934027777777778,0.5952690972222222,0.0,1.0
2809,1.0,0.6828303933143616,0.47112953662872314,0.7666335105895996,0.23861736059188843,0.23348039388656616,0.16875067353248596,0.5681155323982239,0.22448381781578064,0.4254027009010315,0.921875,0.00010850694444444444,0.7482638888888888,0.6414930555555556,0.0,1.0
2836,1.0,0.7416815757751465,0.6308934688568115,0.820501446723938,0.2361675500869751,0.2714822590351105,0.17024557292461395,0.6856343746185303,0.24805712699890137,0.2754370868206024,0.7103949652777778,0.00010850694444444444,0.7408854166666666,0.767578125,0.0,1.0
2844,1.0,0.7584736943244934,0.4895046055316925,0.8105099201202393,0.21708866953849792,0.21324095129966736,0.14957863092422485,0.60652095079422,0.2007094919681549,0.4266508221626282,0.9239366319444444,0.0008680555555555555,0.5505642361111112,0.7047526041666666,0.0,1.0
2845,1.0,0.6922491788864136,0.5764123201370239,0.786115825176239,0.2544761598110199,0.26133066415786743,0.18050116300582886,0.6349537372589111,0.24924196302890778,0.3124254047870636,0.8196614583333334,0.00021701388888888888,0.7482638888888888,0.6841362847222222,0.007843137718737125,1.0
2926,1.0,0.6264940500259399,0.37711483240127563,0.7222371101379395,0.22189736366271973,0.20918193459510803,0.15494558215141296,0.49102312326431274,0.2013753056526184,0.5108153223991394,0.9358723958333334,0.0,0.8148871527777778,0.4334852430555556,0.007843137718737125,0.9960784316062927
2952,1.0,0.704308807849884,0.6293457746505737,0.7995005249977112,0.2524150609970093,0.28817468881607056,0.18052294850349426,0.6711574196815491,0.26435035467147827,0.2619214951992035,0.6504991319444444,0.0,0.8436414930555556,0.6903211805555556,0.019607843831181526,1.0
3040,0.0,0.727374792098999,0.6022160649299622,0.8084546327590942,0.24733732640743256,0.2605319321155548,0.17645631730556488,0.6631497740745544,0.24582360684871674,0.29911088943481445,0.8017578125,0.00043402777777777775,0.7211371527777778,0.7396918402777778,0.007843137718737125,1.0
3042,1.0,0.6904909610748291,0.6116527915000916,0.7894531488418579,0.25444498658180237,0.28611475229263306,0.18265168368816376,0.6554946303367615,0.26395195722579956,0.27545562386512756,0.6870659722222222,0.00010850694444444444,0.8157552083333334,0.67578125,0.019607843831181526,1.0
3127,0.0,0.7863945364952087,0.6694508790969849,0.8502812385559082,0.21900247037410736,0.25359907746315,0.15664725005626678,0.7250316143035889,0.23035727441310883,0.24931854009628296,0.6867404513888888,0.0005425347222222222,0.6642795138888888,0.8288845486111112,0.0,1.0
3146,0.0,0.7185845375061035,0.5930313467979431,0.8025616407394409,0.24316225945949554,0.27460408210754395,0.17512980103492737,0.6544581651687622,0.252360463142395,0.3082853853702545,0.7642144097222222,0.00010850694444444444,0.7429470486111112,0.7245008680555556,0.007843137718737125,1.0
3236,0.0,0.8803244829177856,0.8154871463775635,0.9151420593261719,0.1886812299489975,0.24988071620464325,0.14240245521068573,0.846234142780304,0.2172948569059372,0.14076870679855347,0.2243923611111111,0.001193576388888889,0.8372395833333334,0.8910590277777778,0.0,1.0
3312,1.0,0.7147067189216614,0.6333091259002686,0.8006425499916077,0.2781783640384674,0.32814541459083557,0.20125722885131836,0.6767230033874512,0.29765745997428894,0.27313491702079773,0.5866970486111112,0.0,0.8309461805555556,0.6686197916666666,0.019607843831181526,1.0
3321,0.0,0.8100426197052002,0.7511135935783386,0.8700274229049683,0.2370784431695938,0.2714792490005493,0.17022128403186798,0.7822895646095276,0.2488125115633011,0.17725738883018494,0.4067925347222222,0.00021701388888888888,0.6726345486111112,0.8226996527777778,0.0,1.0
3366,0.0,0.6218788623809814,0.539685070514679,0.739818274974823,0.2702198922634125,0.2951749563217163,0.1943509876728058,0.5870761871337891,0.2754698097705841,0.32936692237854004,0.7424045138888888,0.0,0.8208550347222222,0.5392795138888888,0.0235294122248888,1.0
3371,1.0,0.6694563031196594,0.502521276473999,0.7633578777313232,0.24723568558692932,0.25298911333084106,0.17688420414924622,0.5821702480316162,0.24059773981571198,0.38759729266166687,0.8832465277777778,0.00010850694444444444,0.7738715277777778,0.6433376736111112,0.0,1.0
3463,1.0,0.73893141746521,0.4875519573688507,0.8006808757781982,0.21702243387699127,0.20809732377529144,0.15082819759845734,0.5984110832214355,0.19889575242996216,0.4211087226867676,0.9297960069444444,0.0009765625,0.6470269097222222,0.7337239583333334,0.0,1.0
3499,1.0,0.713769257068634,0.5151259303092957,0.7902586460113525,0.23649689555168152,0.23654918372631073,0.16570699214935303,0.60588538646698,0.22460412979125977,0.3845449984073639,0.8994140625,0.0,0.7432725694444444,0.7032335069444444,0.03921568766236305,1.0
3505,1.0,0.7640399932861328,0.6430342197418213,0.8329141736030579,0.2386528104543686,0.28156301379203796,0.17204253375530243,0.7008612155914307,0.2541767954826355,0.27348408102989197,0.6860894097222222,0.00010850694444444444,0.7667100694444444,0.7824435763888888,0.0,1.0
3536,1.0,0.7576534152030945,0.6082049012184143,0.8274123072624207,0.22206667065620422,0.252960741519928,0.15793900191783905,0.6778795719146729,0.23020899295806885,0.3025749921798706,0.7873263888888888,0.0010850694444444445,0.6899956597222222,0.7835286458333334,0.0,1.0
3608,1.0,0.6537394523620605,0.5305155515670776,0.758404016494751,0.2513435184955597,0.2726326286792755,0.18132784962654114,0.5933387875556946,0.2547696828842163,0.3516789376735687,0.8295355902777778,0.00010850694444444444,0.8138020833333334,0.6171875,0.007843137718737125,1.0
3630,0.0,0.6271212100982666,0.5389515161514282,0.7446886897087097,0.25705990195274353,0.2853353023529053,0.18516458570957184,0.5887682437896729,0.2645486295223236,0.3302329480648041,0.7711588541666666,0.0,0.8580729166666666,0.5579427083333334,0.0470588244497776,1.0
3633,0.0,0.6894280910491943,0.5808168053627014,0.7862592339515686,0.2417326718568802,0.26870840787887573,0.17380088567733765,0.6367119550704956,0.24883386492729187,0.30726417899131775,0.7687717013888888,0.0,0.8174913194444444,0.6981336805555556,0.01568627543747425,1.0
3684,0.0,0.8862506747245789,0.8366085886955261,0.9200394153594971,0.1932532638311386,0.2552134096622467,0.14400118589401245,0.8609626293182373,0.22236895561218262,0.12305131554603577,0.2202690972222222,0.001193576388888889,0.8187934027777778,0.8874782986111112,0.0,1.0
3813,0.0,0.5576822757720947,0.470359742641449,0.6919527053833008,0.27245157957077026,0.2969604730606079,0.19759699702262878,0.5217307209968567,0.27714741230010986,0.3848949074745178,0.7917751736111112,0.00010850694444444444,0.8403862847222222,0.4144965277777778,0.0117647061124444,1.0
3844,0.0,0.824023962020874,0.7719073295593262,0.8758766651153564,0.25425300002098083,0.31284433603286743,0.18706339597702026,0.7993427515029907,0.28024882078170776,0.17262525856494904,0.3046875,0.0,0.8875868055555556,0.8004557291666666,0.0117647061124444,1.0
3876,1.0,0.868934690952301,0.8027552366256714,0.9096319675445557,0.1769615113735199,0.22599004209041595,0.13265486061573029,0.834726870059967,0.19827429950237274,0.14412568509578705,0.302734375,0.0009765625,0.7815755208333334,0.9159071180555556,0.0,1.0
3896,0.0,0.8358005285263062,0.683720588684082,0.8778888583183289,0.19197195768356323,0.2566397488117218,0.14075548946857452,0.7513276934623718,0.21939268708229065,0.2527110278606415,0.6592881944444444,0.003146701388888889,0.6784939236111112,0.8841145833333334,0.0,1.0
3954,1.0,0.6741116046905518,0.47068867087364197,0.7623749375343323,0.23933935165405273,0.22810328006744385,0.16792453825473785,0.5647643208503723,0.22128047049045563,0.4209817349910736,0.9208984375,0.0,0.7376302083333334,0.634765625,0.0,1.0
3955,1.0,0.7225821614265442,0.5987668633460999,0.8069308400154114,0.2353171855211258,0.2632092833518982,0.16774816811084747,0.6595183610916138,0.24249380826950073,0.30014458298683167,0.7759331597222222,0.0,0.7462022569444444,0.7416449652777778,0.003921568859368563,1.0
4007,1.0,0.7356894016265869,0.5002846717834473,0.8006723523139954,0.21881331503391266,0.2174881547689438,0.1546236127614975,0.6049149036407471,0.20656350255012512,0.40753188729286194,0.9258897569444444,0.00021701388888888888,0.7310112847222222,0.7409939236111112,0.0,1.0
4024,1.0,0.7267148494720459,0.5234341025352478,0.7993502020835876,0.2244029939174652,0.23050647974014282,0.15854671597480774,0.6156694889068604,0.21675759553909302,0.3803066611289978,0.8977864583333334,0.00043402777777777775,0.7200520833333334,0.7490234375,0.0,1.0
4085,1.0,0.6594350337982178,0.48379161953926086,0.7563503980636597,0.24169354140758514,0.2330244928598404,0.17177875339984894,0.5673806667327881,0.22662876546382904,0.4010458290576935,0.9194878472222222,0.00010850694444444444,0.8033854166666666,0.6440972222222222,0.007843137718737125,1.0
4107,1.0,0.7086558938026428,0.607968270778656,0.7962158918380737,0.26929420232772827,0.2889123857021332,0.19314737617969513,0.6595341563224792,0.2712538540363312,0.2906177043914795,0.7042100694444444,0.0,0.7165798611111112,0.6892361111111112,0.01568627543747425,1.0
4111,1.0,0.7559546828269958,0.6016705632209778,0.8255021572113037,0.22372838854789734,0.2526099681854248,0.15907016396522522,0.6733183264732361,0.23084425926208496,0.3089889883995056,0.7999131944444444,0.0007595486111111111,0.6935763888888888,0.7877604166666666,0.0,1.0
4178,0.0,0.6227949261665344,0.4834197461605072,0.7346988320350647,0.2525354325771332,0.2573947310447693,0.18145182728767395,0.5537387728691101,0.24624203145503998,0.39163267612457275,0.8901909722222222,0.00010850694444444444,0.8355034722222222,0.5534939236111112,0.01568627543747425,0.9960784316062927
4189,0.0,0.6994340419769287,0.5916466116905212,0.7925368547439575,0.2473953813314438,0.26133254170417786,0.17745207250118256,0.6467766165733337,0.24676449596881866,0.29867133498191833,0.8004557291666666,0.00021701388888888888,0.8224826388888888,0.7016059027777778,0.01568627543747425,1.0
4217,0.0,0.5863988399505615,0.4970856308937073,0.7149271368980408,0.260585218667984,0.28880223631858826,0.18774522840976715,0.5486242771148682,0.2675396203994751,0.3620412349700928,0.7890625,0.00010850694444444444,0.8529730902777778,0.4585503472222222,0.003921568859368563,1.0
4272,0.0,0.6036636829376221,0.5174627900123596,0.7280739545822144,0.26158905029296875,0.2873916029930115,0.1871042400598526,0.5672465562820435,0.267348974943161,0.34477126598358154,0.7713758680555556,0.0,0.8269314236111112,0.4952256944444444,0.027450980618596077,1.0
4292,0.0,0.8273531794548035,0.7013046741485596,0.8757246136665344,0.20662419497966766,0.2510685324668884,0.14663714170455933,0.7588770389556885,0.2225283682346344,0.23134422302246094,0.6296657986111112,0.0010850694444444445,0.5562065972222222,0.8641493055555556,0.003921568859368563,1.0
4312,0.0,0.587459146976471,0.5030611753463745,0.715733528137207,0.26601430773735046,0.294722318649292,0.19119751453399658,0.5525408387184143,0.27323150634765625,0.3565882444381714,0.7670355902777778,0.00010850694444444444,0.8362630208333334,0.4576822916666667,0.003921568859368563,1.0
4349,1.0,0.732555091381073,0.6001421809196472,0.8107754588127136,0.24765221774578094,0.25294527411460876,0.17679670453071594,0.6637457609176636,0.2414722889661789,0.30241912603378296,0.8400607638888888,0.00021701388888888888,0.7277560763888888,0.7596571180555556,0.007843137718737125,1.0
4380,1.0,0.7975252270698547,0.6895050406455994,0.8538510203361511,0.24620820581912994,0.3192530870437622,0.17758509516716003,0.7405385375022888,0.2784040868282318,0.24376389384269714,0.4758029513888889,0.0,0.6845703125,0.7404513888888888,0.007843137718737125,1.0
4388,1.0,0.8864967226982117,0.8335784673690796,0.9190598726272583,0.20116537809371948,0.25438007712364197,0.14883515238761902,0.8591458797454834,0.22492802143096924,0.1260867714881897,0.2778862847222222,0.00021701388888888888,0.7875434027777778,0.9019097222222222,0.003921568859368563,1.0
4394,1.0,0.7254769802093506,0.6315125226974487,0.8122434616088867,0.24365483224391937,0.26456549763679504,0.17314112186431885,0.6802113056182861,0.24720868468284607,0.26532095670700073,0.7122395833333334,0.00010850694444444444,0.7658420138888888,0.7376302083333334,0.007843137718737125,1.0
4436,1.0,0.7046168446540833,0.5852928161621094,0.7937350869178772,0.24769821763038635,0.2806733548641205,0.17833171784877777,0.644733190536499,0.25790128111839294,0.31213024258613586,0.7515190972222222,0.00021701388888888888,0.7528211805555556,0.6983506944444444,0.003921568859368563,1.0
4459,1.0,0.7078354954719543,0.4968005418777466,0.782820999622345,0.24686294794082642,0.23419936001300812,0.17382363975048065,0.5925062894821167,0.22778095304965973,0.40567028522491455,0.9147135416666666,0.0003255208333333333,0.6802300347222222,0.6885850694444444,0.0,1.0
4465,1.0,0.6396412253379822,0.427737832069397,0.7363178730010986,0.24333474040031433,0.21783748269081116,0.17069603502750397,0.5262750387191772,0.21664664149284363,0.4572712182998657,0.9422743055555556,0.0,0.7823350694444444,0.5626085069444444,0.003921568859368563,1.0
4539,1.0,0.7715920209884644,0.6429159641265869,0.8384297490119934,0.2263697236776352,0.2593398690223694,0.1624460220336914,0.7036787271499634,0.23671498894691467,0.2728908360004425,0.7267795138888888,0.0,0.6858723958333334,0.8089192708333334,0.003921568859368563,1.0
4576,1.0,0.7493476867675781,0.4730907082557678,0.803165078163147,0.2185933142900467,0.21320107579231262,0.14979048073291779,0.5933201313018799,0.20067504048347473,0.44111931324005127,0.9263237847222222,0.0006510416666666666,0.5764973958333334,0.6830512152777778,0.0,1.0
4605,1.0,0.8294007182121277,0.7143557071685791,0.878352701663971,0.20536991953849792,0.24029357731342316,0.1469864398241043,0.7674497961997986,0.21695728600025177,0.21831655502319336,0.6309678819444444,0.0013020833333333333,0.5754123263888888,0.8763020833333334,0.0,1.0
4714,0.0,0.5618646740913391,0.38577067852020264,0.6872221827507019,0.22856375575065613,0.21974197030067444,0.16518592834472656,0.4727882742881775,0.21443121135234833,0.48059403896331787,0.9398871527777778,0.0,0.8807508680555556,0.4291449652777778,0.027450980618596077,0.9960784316062927
4825,1.0,0.697014570236206,0.5023428797721863,0.7800053358078003,0.22936014831066132,0.2440364956855774,0.16304424405097961,0.5922032594680786,0.22741450369358063,0.39606842398643494,0.8862847222222222,0.0,0.7457682291666666,0.6694878472222222,0.003921568859368563,1.0
4864,0.0,0.9132331013679504,0.8855149745941162,0.9430432915687561,0.13556669652462006,0.16562330722808838,0.1053195595741272,0.9003608226776123,0.14875046908855438,0.07637148350477219,0.1086154513888889,0.0018446180555555555,0.8796657986111112,0.9596354166666666,0.0,1.0
4955,0.0,0.8421602845191956,0.7586125135421753,0.883155107498169,0.24030320346355438,0.3290802836418152,0.1784525066614151,0.7977911233901978,0.2828141748905182,0.1949019730091095,0.3363715277777778,0.00010850694444444444,0.5797526041666666,0.7877604166666666,0.0117647061124444,1.0
4977,1.0,0.7923628687858582,0.4930734634399414,0.8300564289093018,0.19068047404289246,0.19232423603534698,0.13070125877857208,0.6209771037101746,0.17689096927642822,0.42931705713272095,0.9388020833333334,0.0,0.5360243055555556,0.7816840277777778,0.019607843831181526,1.0
5037,1.0,0.6358187794685364,0.4409428834915161,0.7369000911712646,0.2390679121017456,0.22652310132980347,0.168934628367424,0.5329498648643494,0.22074942290782928,0.4413334131240845,0.9278428819444444,0.0,0.8004557291666666,0.5675998263888888,0.0,1.0
5085,0.0,0.6425721645355225,0.53102707862854,0.7515599131584167,0.25930842757225037,0.28222882747650146,0.18582381308078766,0.5895197987556458,0.2633923888206482,0.34739768505096436,0.7973090277777778,0.00010850694444444444,0.7909071180555556,0.5729166666666666,0.003921568859368563,1.0
5092,1.0,0.8599605560302734,0.8065105080604553,0.9042367935180664,0.1950415074825287,0.2454606592655182,0.14740093052387238,0.83363276720047,0.21795187890529633,0.14124836027622223,0.2608506944444444,0.0006510416666666666,0.8595920138888888,0.8930121527777778,0.0117647061124444,1.0
5147,1.0,0.7145280241966248,0.4998842477798462,0.7889357209205627,0.2273779809474945,0.23346520960330963,0.160269632935524,0.5970146656036377,0.2191474586725235,0.40317302942276,0.9025607638888888,0.00043402777777777775,0.7078993055555556,0.6954210069444444,0.0,1.0
5214,0.0,0.7185253500938416,0.5288790464401245,0.7950499653816223,0.23708802461624146,0.23047545552253723,0.16533608734607697,0.6159267425537109,0.22181838750839233,0.3708440065383911,0.9057074652777778,0.00021701388888888888,0.7108289930555556,0.7085503472222222,0.0,1.0
5477,1.0,0.6449576616287231,0.544852077960968,0.7574248909950256,0.24473926424980164,0.25983428955078125,0.17553377151489258,0.5990169644355774,0.24511446058750153,0.32655391097068787,0.8221571180555556,0.00010850694444444444,0.8403862847222222,0.6187065972222222,0.01568627543747425,1.0
5499,1.0,0.7607567310333252,0.6033313274383545,0.8273518085479736,0.23071816563606262,0.24850524961948395,0.16423703730106354,0.6759397983551025,0.23124735057353973,0.3094414174556732,0.8266059027777778,0.0007595486111111111,0.6630859375,0.7902560763888888,0.0,1.0
5566,1.0,0.7583388686180115,0.562849760055542,0.823437511920929,0.21117174625396729,0.21477973461151123,0.1456563025712967,0.6510080099105835,0.20218893885612488,0.34453049302101135,0.8955078125,0.001193576388888889,0.6804470486111112,0.7957899305555556,0.0,1.0
5713,0.0,0.862311065196991,0.7880808711051941,0.9032271504402161,0.19422565400600433,0.24936756491661072,0.14330068230628967,0.8234024047851562,0.21881024539470673,0.15919798612594604,0.3760850694444444,0.0008680555555555555,0.7508680555555556,0.8994140625,0.0,1.0
5745,0.0,0.5836771726608276,0.45885801315307617,0.7091554403305054,0.24875476956367493,0.2614082396030426,0.18024949729442596,0.5247128009796143,0.2475489228963852,0.4052000343799591,0.8796657986111112,0.00010850694444444444,0.8644748263888888,0.4775390625,0.019607843831181526,0.9960784316062927
5778,0.0,0.7978652119636536,0.7095997333526611,0.8623770475387573,0.2005709707736969,0.24746255576610565,0.1460707038640976,0.7534077167510986,0.21973198652267456,0.2098347246646881,0.5021701388888888,0.0010850694444444445,0.8207465277777778,0.8522135416666666,0.0,1.0
5824,0.0,0.5615103244781494,0.46768665313720703,0.6956346035003662,0.26152274012565613,0.2838234603404999,0.19014650583267212,0.5217259526252747,0.26587599515914917,0.388105183839798,0.8248697916666666,0.0,0.8531901041666666,0.4315321180555556,0.027450980618596077,1.0
5830,1.0,0.6489732265472412,0.5630705952644348,0.7612536549568176,0.24954833090305328,0.2785249650478363,0.17917761206626892,0.6113483905792236,0.2575797438621521,0.3100370168685913,0.7569444444444444,0.00010850694444444444,0.8492838541666666,0.6024305555555556,0.01568627543747425,1.0
5842,1.0,0.6232720017433167,0.41167494654655457,0.724952757358551,0.23504158854484558,0.22948797047138214,0.1674216389656067,0.5106561183929443,0.2206057459115982,0.47329553961753845,0.9274088541666666,0.00021701388888888888,0.8113064236111112,0.5122612847222222,0.0,1.0
5903,1.0,0.7129323482513428,0.6030203700065613,0.7999494075775146,0.25206485390663147,0.28325483202934265,0.1811826378107071,0.658333957195282,0.2611291706562042,0.296260267496109,0.7305772569444444,0.0,0.7416449652777778,0.7085503472222222,0.01568627543747425,1.0
5940,1.0,0.8338852524757385,0.7502467632293701,0.8857035040855408,0.19628658890724182,0.2353106439113617,0.14230801165103912,0.7906967997550964,0.21117183566093445,0.18248507380485535,0.4832899305555556,0.002712673611111111,0.6871744791666666,0.8889973958333334,0.0,1.0
6033,1.0,0.7423530220985413,0.5193491578102112,0.8071840405464172,0.21772976219654083,0.22349074482917786,0.1532619148492813,0.6188405156135559,0.20906475186347961,0.3893635869026184,0.9103732638888888,0.0006510416666666666,0.6966145833333334,0.7524956597222222,0.0,1.0
6040,1.0,0.7332589030265808,0.45840781927108765,0.7946469783782959,0.20851735770702362,0.1797594428062439,0.14121755957603455,0.5789195895195007,0.1791819930076599,0.44797542691230774,0.9778645833333334,0.0007595486111111111,0.6439887152777778,0.7085503472222222,0.003921568859368563,0.9960784316062927
6049,1.0,0.7169002890586853,0.4374796152114868,0.7830712795257568,0.20553964376449585,0.18107621371746063,0.13906654715538025,0.5604238510131836,0.17855873703956604,0.465716689825058,0.9751519097222222,0.0,0.6869574652777778,0.6490885416666666,0.019607843831181526,0.9960784316062927
6052,1.0,0.7771838307380676,0.6160079836845398,0.8386940360069275,0.21661528944969177,0.24715998768806458,0.15422730147838593,0.6895857453346252,0.22458647191524506,0.3011881709098816,0.8015407986111112,0.00021701388888888888,0.6678602430555556,0.8055555555555556,0.0,1.0
6097,1.0,0.683422327041626,0.40128251910209656,0.7569495439529419,0.22473163902759552,0.19544030725955963,0.15316475927829742,0.5261883735656738,0.19408175349235535,0.4996563196182251,0.9701605902777778,0.0,0.6915147569444444,0.5130208333333334,0.027450980618596077,0.9960784316062927
6230,0.0,0.8340771198272705,0.7692415118217468,0.8887007832527161,0.18248353898525238,0.23201154172420502,0.13558968901634216,0.8022457361221313,0.2042083889245987,0.16275222599506378,0.2992621527777778,0.0007595486111111111,0.8619791666666666,0.8870442708333334,0.003921568859368563,1.0
6334,0.0,0.6852494478225708,0.5672701001167297,0.7792662382125854,0.2632370591163635,0.27693435549736023,0.18888142704963684,0.6267135143280029,0.26201319694519043,0.32444918155670166,0.8046875,0.00021701388888888888,0.7516276041666666,0.6557074652777778,0.003921568859368563,1.0
6448,1.0,0.6376706957817078,0.5502765774726868,0.7525275945663452,0.25524669885635376,0.28566306829452515,0.18259552121162415,0.5994640588760376,0.2637436091899872,0.32116615772247314,0.7504340277777778,0.00010850694444444444,0.8148871527777778,0.5685763888888888,0.0117647061124444,1.0
6454,1.0,0.8492600321769714,0.7638242244720459,0.8934347629547119,0.2024943083524704,0.2601838707923889,0.14847330749034882,0.804145097732544,0.22788171470165253,0.17957548797130585,0.4141710069444444,0.0003255208333333333,0.7302517361111112,0.8739149305555556,0.0,1.0
6544,1.0,0.7400310039520264,0.5839426517486572,0.8104447722434998,0.24110755324363708,0.32109421491622925,0.17591622471809387,0.6564342975616455,0.2769215404987335,0.3338213562965393,0.6342230902777778,0.0,0.8560112847222222,0.6605902777777778,0.003921568859368563,1.0
6566,1.0,0.7761939764022827,0.5459150671958923,0.8279411792755127,0.21641705930233002,0.22159147262573242,0.15357442200183868,0.6469194293022156,0.2073744237422943,0.37242963910102844,0.8949652777777778,0.00010850694444444444,0.6585286458333334,0.8160807291666666,0.0,1.0
6586,1.0,0.7763340473175049,0.646148681640625,0.8390357494354248,0.24067193269729614,0.29860103130340576,0.17271463572978973,0.7070632576942444,0.2638325095176697,0.277229905128479,0.6300998263888888,0.0005425347222222222,0.7205946180555556,0.7598741319444444,0.0,1.0
6667,0.0,0.8179202079772949,0.7493476867675781,0.8809134364128113,0.16114316880702972,0.19811761379241943,0.12042135000228882,0.7848494052886963,0.17530475556850433,0.17082518339157104,0.4033203125,0.0022786458333333335,0.8541666666666666,0.9200303819444444,0.0,1.0
6775,0.0,0.6167542934417725,0.48733240365982056,0.7298054099082947,0.2633942663669586,0.27435651421546936,0.19028939306735992,0.5536714196205139,0.26038429141044617,0.3884772062301636,0.859375,0.0,0.8044704861111112,0.5401475694444444,0.0117647061124444,1.0
6806,0.0,0.8410828709602356,0.7524816393852234,0.888444185256958,0.1950557380914688,0.2571205794811249,0.14485852420330048,0.7944731116294861,0.22256700694561005,0.18638859689235687,0.3995225694444444,0.0013020833333333333,0.7913411458333334,0.8706597222222222,0.0,1.0
6851,0.0,0.7672173380851746,0.6975647807121277,0.8388884663581848,0.2581533193588257,0.31211549043655396,0.18549692630767822,0.7345017790794373,0.28053176403045654,0.22199487686157227,0.4796006944444444,0.00010850694444444444,0.8333333333333334,0.7374131944444444,0.007843137718737125,1.0
6962,1.0,0.6987311840057373,0.5453572273254395,0.7842303514480591,0.25026917457580566,0.27847519516944885,0.18019448220729828,0.6184475421905518,0.25673049688339233,0.3553389608860016,0.8116319444444444,0.0,0.7349175347222222,0.6702473958333334,0.007843137718737125,1.0
6999,0.0,0.8517773747444153,0.738008439540863,0.8921641111373901,0.19502417743206024,0.2514110207557678,0.14269037544727325,0.7895991206169128,0.21895016729831696,0.2046446055173874,0.4893663194444444,0.0015190972222222222,0.6334635416666666,0.8836805555555556,0.0,1.0
7166,1.0,0.7160178422927856,0.42961645126342773,0.7803530097007751,0.20867745578289032,0.19129200279712677,0.1422220766544342,0.5552343726158142,0.18447446823120117,0.47537359595298767,0.9497612847222222,0.00021701388888888888,0.6873914930555556,0.6219618055555556,0.003921568859368563,1.0
7181,1.0,0.6756812930107117,0.5511536002159119,0.7739579677581787,0.2467285394668579,0.2763970196247101,0.1768118143081665,0.613787055015564,0.2549409866333008,0.33708861470222473,0.7919921875,0.0003255208333333333,0.7718098958333334,0.6475694444444444,0.003921568859368563,1.0
7189,1.0,0.7133238315582275,0.5366557836532593,0.7934300303459167,0.23784367740154266,0.23634225130081177,0.1670282781124115,0.6187518239021301,0.22657114267349243,0.3619302213191986,0.8884548611111112,0.00010850694444444444,0.6980251736111112,0.7256944444444444,0.0,1.0
7230,0.0,0.5852720737457275,0.4931394159793854,0.7135353088378906,0.26177141070365906,0.2822323441505432,0.1891462802886963,0.54581218957901,0.2646746337413788,0.3660268783569336,0.8108723958333334,0.00010850694444444444,0.8411458333333334,0.4784071180555556,0.003921568859368563,1.0
7267,0.0,0.7064746618270874,0.6095099449157715,0.7964231371879578,0.2581244707107544,0.28922319412231445,0.18668821454048157,0.659810483455658,0.2673773765563965,0.2881847023963928,0.6904296875,0.0,0.7603081597222222,0.6971571180555556,0.019607843831181526,1.0
7275,0.0,0.6249532103538513,0.4773322641849518,0.7337116599082947,0.2591024935245514,0.2613333761692047,0.18617741763591766,0.5506981015205383,0.2507535517215729,0.40137922763824463,0.8902994791666666,0.00021701388888888888,0.8040364583333334,0.5575086805555556,0.003921568859368563,1.0
7301,0.0,0.5693061351776123,0.4808049201965332,0.7032415866851807,0.2571234405040741,0.2877175211906433,0.18527626991271973,0.5326245427131653,0.26569703221321106,0.3739091455936432,0.7935112847222222,0.0,0.8639322916666666,0.4243706597222222,0.03529411926865578,1.0
7368,0.0,0.5805887579917908,0.492162823677063,0.7121362090110779,0.25407519936561584,0.2751096785068512,0.18304458260536194,0.5436791181564331,0.257402628660202,0.3623967170715332,0.8189019097222222,0.0,0.8570963541666666,0.4669053819444444,0.03921568766236305,1.0
7405,1.0,0.7351410388946533,0.4943563640117645,0.8016394972801208,0.20177151262760162,0.19855137169361115,0.1421845257282257,0.6013813018798828,0.1896917223930359,0.41068509221076965,0.9382595486111112,0.00010850694444444444,0.7608506944444444,0.7744140625,0.007843137718737125,1.0
7443,0.0,0.7719635367393494,0.6213929653167725,0.8305781483650208,0.2469109445810318,0.3390622138977051,0.18018920719623566,0.690260648727417,0.2890244126319885,0.3087460398674011,0.5541449652777778,0.0,0.7197265625,0.6495225694444444,0.03921568766236305,1.0
7522,1.0,0.6706324815750122,0.5347354412078857,0.7679926156997681,0.2520555257797241,0.27179259061813354,0.18162453174591064,0.6019600033760071,0.25422585010528564,0.35432660579681396,0.8285590277777778,0.00010850694444444444,0.7805989583333334,0.6473524305555556,0.007843137718737125,1.0
7564,1.0,0.7343251705169678,0.5162603855133057,0.8025412559509277,0.21797016263008118,0.23365773260593414,0.15258559584617615,0.6140977144241333,0.21448977291584015,0.3891642689704895,0.8914930555555556,0.00010850694444444444,0.7356770833333334,0.7180989583333334,0.0117647061124444,1.0
7565,1.0,0.6437755227088928,0.46832194924354553,0.7445781230926514,0.2443566620349884,0.24688464403152466,0.17495794594287872,0.5522757768630981,0.23559260368347168,0.4161857068538666,0.9021267361111112,0.0,0.8006727430555556,0.5962456597222222,0.0,1.0
7574,1.0,0.736129879951477,0.5658649802207947,0.8086354732513428,0.2350883185863495,0.26288244128227234,0.16817857325077057,0.6444500088691711,0.24108019471168518,0.34368494153022766,0.8205295138888888,0.00021701388888888888,0.6840277777777778,0.7264539930555556,0.0,1.0
7609,1.0,0.8090860843658447,0.7096779942512512,0.867845356464386,0.20989961922168732,0.2420000582933426,0.14914803206920624,0.7574321031570435,0.2204124480485916,0.21454930305480957,0.6153428819444444,0.0005425347222222222,0.6398654513888888,0.8672960069444444,0.003921568859368563,1.0
7622,1.0,0.6888177990913391,0.5250748991966248,0.7770795226097107,0.24141590297222137,0.286330908536911,0.1716925948858261,0.6027625203132629,0.2556335926055908,0.3710778057575226,0.7709418402777778,0.00010850694444444444,0.7577039930555556,0.6177300347222222,0.0,1.0
7638,1.0,0.865395724773407,0.8177262544631958,0.908557653427124,0.1961265504360199,0.23818624019622803,0.1426389068365097,0.8423341512680054,0.21387745440006256,0.12939070165157318,0.3041449652777778,0.0009765625,0.6427951388888888,0.9078776041666666,0.003921568859368563,1.0
7653,1.0,0.796311616897583,0.5900956988334656,0.8439517021179199,0.21784190833568573,0.24156898260116577,0.15476296842098236,0.6806938648223877,0.22071662545204163,0.3369862735271454,0.8764105902777778,0.00010850694444444444,0.5319010416666666,0.8021918402777778,0.0,1.0
7836,0.0,0.7234719395637512,0.6404199600219727,0.8079903721809387,0.2709387242794037,0.3148084282875061,0.1944623589515686,0.6843554973602295,0.2869671881198883,0.2655326724052429,0.6039496527777778,0.00021701388888888888,0.8011067708333334,0.6888020833333334,0.0117647061124444,1.0
7838,0.0,0.6802853345870972,0.583980143070221,0.7801462411880493,0.2567801773548126,0.2780742049217224,0.18366515636444092,0.6351383328437805,0.2603769302368164,0.3016751706600189,0.7533637152777778,0.0,0.8116319444444444,0.6520182291666666,0.0235294122248888,1.0
7839,0.0,0.9024889469146729,0.8304479122161865,0.9286842346191406,0.17105263471603394,0.2383021116256714,0.1288241446018219,0.8631870746612549,0.20253214240074158,0.13241054117679596,0.2998046875,0.0009765625,0.716796875,0.9182942708333334,0.0,1.0
7900,0.0,0.5277931094169617,0.40260499715805054,0.6690576672554016,0.2355351448059082,0.24969668686389923,0.1724824756383896,0.47041189670562744,0.23569929599761963,0.4491810202598572,0.9077690972222222,0.0,0.8968098958333334,0.3735894097222222,0.0313725508749485,1.0
8031,0.0,0.797148585319519,0.6741187572479248,0.8560053706169128,0.21093438565731049,0.26840880513191223,0.15372173488140106,0.7316397428512573,0.2346121072769165,0.2503215968608856,0.5914713541666666,0.0003255208333333333,0.7620442708333334,0.8146701388888888,0.003921568859368563,1.0
8047,0.0,0.8102651834487915,0.6406680345535278,0.856932520866394,0.2045646756887436,0.30104687809944153,0.15069817006587982,0.7160317301750183,0.25020381808280945,0.2936956584453583,0.6010199652777778,0.0003255208333333333,0.7316623263888888,0.7609592013888888,0.0117647061124444,1.0
8063,1.0,0.6778930425643921,0.5820887088775635,0.7792913317680359,0.24992404878139496,0.2759116291999817,0.1798381805419922,0.6332153081893921,0.2563166916370392,0.3019677400588989,0.7544487847222222,0.0,0.8298611111111112,0.6703559027777778,0.0235294122248888,1.0
8164,1.0,0.6407960057258606,0.5357634425163269,0.7502391338348389,0.26874613761901855,0.27870792150497437,0.19272659718990326,0.5916184782981873,0.265315443277359,0.34077635407447815,0.8083767361111112,0.0,0.7834201388888888,0.5843098958333334,0.01568627543747425,0.9960784316062927
8183,1.0,0.7036701440811157,0.5427683591842651,0.7888872623443604,0.2391704022884369,0.24082869291305542,0.1695755124092102,0.6189355254173279,0.23037035763263702,0.3521031141281128,0.884765625,0.0008680555555555555,0.7290581597222222,0.7172309027777778,0.0,1.0
8222,1.0,0.5858647227287292,0.4375995695590973,0.7061419486999512,0.2513302266597748,0.2609717547893524,0.18216204643249512,0.5125447511672974,0.24749071896076202,0.4331451654434204,0.8898654513888888,0.00010850694444444444,0.8480902777777778,0.4779730902777778,0.007843137718737125,1.0
8290,0.0,0.5785496234893799,0.48433923721313477,0.7058542966842651,0.2748202085494995,0.29036274552345276,0.20011770725250244,0.5377609133720398,0.2749752402305603,0.37820059061050415,0.8154296875,0.0,0.8308376736111112,0.4743923611111111,0.027450980618596077,1.0
8485,0.0,0.618145763874054,0.5284883975982666,0.736160933971405,0.2708289325237274,0.2897307574748993,0.19461466372013092,0.5789706707000732,0.2725895643234253,0.34034737944602966,0.7694227430555556,0.0,0.8033854166666666,0.5360243055555556,0.0313725508749485,1.0
8554,0.0,0.8828554749488831,0.8292539119720459,0.919804036617279,0.17244605720043182,0.21918150782585144,0.1287575364112854,0.8556035161018372,0.19336067140102386,0.12306724488735199,0.1921657986111111,0.0009765625,0.8363715277777778,0.9149305555555556,0.007843137718737125,1.0
8733,1.0,0.755078136920929,0.5000395774841309,0.8119468688964844,0.20341914892196655,0.2135833203792572,0.1402851939201355,0.6118535399436951,0.1953134834766388,0.41113245487213135,0.9153645833333334,0.00043402777777777775,0.6584201388888888,0.7239583333333334,0.007843137718737125,1.0
8779,1.0,0.6505383253097534,0.5618684887886047,0.7611038684844971,0.25482892990112305,0.27918845415115356,0.18350978195667267,0.6110936403274536,0.26035192608833313,0.31329014897346497,0.7746310763888888,0.00010850694444444444,0.8474392361111112,0.6079644097222222,0.007843137718737125,1.0
8890,0.0,0.8918637037277222,0.786152720451355,0.9205296039581299,0.15362125635147095,0.19141115248203278,0.11441221833229065,0.8330793380737305,0.16790871322155,0.16534529626369476,0.4986979166666667,0.002712673611111111,0.5991753472222222,0.9460720486111112,0.0,1.0
8935,0.0,0.6166934370994568,0.5283952355384827,0.737448513507843,0.25629922747612,0.2866988182067871,0.18412837386131287,0.5786284804344177,0.26470252871513367,0.33755311369895935,0.7676866319444444,0.00021701388888888888,0.8450520833333334,0.5233289930555556,0.0,1.0
9022,0.0,0.8695002198219299,0.7954606413841248,0.9092099070549011,0.1801748126745224,0.2225227952003479,0.13269267976284027,0.830565869808197,0.19768258929252625,0.15103040635585785,0.3122829861111111,0.0015190972222222222,0.7622612847222222,0.9110243055555556,0.0,1.0
9040,0.0,0.728074312210083,0.6072725653648376,0.8038619756698608,0.2762739062309265,0.3333415389060974,0.20005221664905548,0.6658034920692444,0.29882484674453735,0.30922752618789673,0.6114366319444444,0.00010850694444444444,0.6154513888888888,0.6650390625,0.003921568859368563,1.0
9327,1.0,0.7445959448814392,0.6331924796104431,0.822748601436615,0.2353668510913849,0.27041587233543396,0.1679869145154953,0.6881115436553955,0.24692508578300476,0.27331703901290894,0.7008463541666666,0.00010850694444444444,0.7074652777777778,0.7667100694444444,0.0117647061124444,1.0
9405,1.0,0.7563483715057373,0.647304356098175,0.8338596820831299,0.20273151993751526,0.24288532137870789,0.14660313725471497,0.7011758089065552,0.21689118444919586,0.2571035623550415,0.7172309027777778,0.0005425347222222222,0.7884114583333334,0.8173828125,0.003921568859368563,1.0
9441,0.0,0.7157939076423645,0.47720760107040405,0.7842031121253967,0.24599356949329376,0.2202964723110199,0.170170396566391,0.5835424065589905,0.2174517661333084,0.42785781621932983,0.9312065972222222,0.00043402777777777775,0.6062282986111112,0.6761067708333334,0.0,1.0
9500,0.0,0.591834306716919,0.4855439364910126,0.7161679267883301,0.263821005821228,0.27092716097831726,0.18972347676753998,0.5436158776283264,0.25896573066711426,0.3771192729473114,0.8480902777777778,0.0,0.8194444444444444,0.4963107638888889,0.0235294122248888,1.0
9506,0.0,0.7179329991340637,0.6364894509315491,0.8043505549430847,0.27115312218666077,0.31492742896080017,0.19547246396541595,0.6799771785736084,0.2871859073638916,0.26731476187705994,0.6139322916666666,0.00010850694444444444,0.8591579861111112,0.6911892361111112,0.007843137718737125,1.0
9551,0.0,0.6693300008773804,0.4527437388896942,0.7548598647117615,0.23732097446918488,0.2702825963497162,0.17012636363506317,0.5519443154335022,0.24357077479362488,0.4470941126346588,0.8503689236111112,0.00010850694444444444,0.779296875,0.51953125,0.019607843831181526,1.0
9572,0.0,0.8786045908927917,0.8451478481292725,0.9147982001304626,0.22500260174274445,0.2707935869693756,0.16263630986213684,0.8630915284156799,0.2437099814414978,0.11280795186758041,0.2265625,0.00043402777777777775,0.5923394097222222,0.8579644097222222,0.003921568859368563,1.0
9578,0.0,0.628887951374054,0.538508415222168,0.7436913251876831,0.2674087584018707,0.29801809787750244,0.1925884485244751,0.5889227986335754,0.27578550577163696,0.33508965373039246,0.7469618055555556,0.0,0.8084852430555556,0.5455729166666666,0.019607843831181526,1.0
9588,0.0,0.8791377544403076,0.7989821434020996,0.9142382740974426,0.17505274713039398,0.21780966222286224,0.1295863837003708,0.8360879421234131,0.19261302053928375,0.1507224142551422,0.2890625,0.001953125,0.7802734375,0.9185112847222222,0.0,1.0
9638,0.0,0.7837610244750977,0.7170283794403076,0.8504030108451843,0.25254735350608826,0.3008134365081787,0.1836066097021103,0.752186119556427,0.2720993459224701,0.20790709555149078,0.4659288194444444,0.0,0.8655598958333334,0.7842881944444444,0.0117647061124444,1.0
9663,1.0,0.7505919337272644,0.5637178421020508,0.81720370054245,0.2254575788974762,0.24211439490318298,0.1591206192970276,0.6484904885292053,0.22425851225852966,0.3470310866832733,0.8588324652777778,0.0003255208333333333,0.6519097222222222,0.763671875,0.0,1.0
9668,1.0,0.6544053554534912,0.5665930509567261,0.7634897828102112,0.25853851437568665,0.27818408608436584,0.1855074018239975,0.6152951717376709,0.2610841393470764,0.30928897857666016,0.7632378472222222,0.0,0.8098958333333334,0.6225043402777778,0.027450980618596077,1.0
9672,1.0,0.7017939686775208,0.5479298830032349,0.7884020805358887,0.23892393708229065,0.25638869404792786,0.17045781016349792,0.6213490962982178,0.2393365502357483,0.3482211232185364,0.8498263888888888,0.0,0.7515190972222222,0.7082248263888888,0.0117647061124444,1.0
9787,1.0,0.7141948342323303,0.4821878671646118,0.7876995801925659,0.21198326349258423,0.22146391868591309,0.14762134850025177,0.5863862633705139,0.20422494411468506,0.4180625081062317,0.9164496527777778,0.0005425347222222222,0.7567274305555556,0.6695963541666666,0.0,1.0
9829,1.0,0.6409245729446411,0.40198761224746704,0.7353039383888245,0.22550714015960693,0.1917111575603485,0.15501831471920013,0.5114278197288513,0.1937454342842102,0.4829493761062622,0.9653862847222222,0.00021701388888888888,0.7927517361111112,0.5240885416666666,0.003921568859368563,0.9921568632125854
9855,1.0,0.7733001112937927,0.6632582545280457,0.8418304920196533,0.22847892343997955,0.2624202370643616,0.1641208976507187,0.716517984867096,0.23971252143383026,0.25228211283683777,0.6864149305555556,0.00010850694444444444,0.70703125,0.8141276041666666,0.003921568859368563,1.0
9881,1.0,0.7432057857513428,0.5975916385650635,0.8181458711624146,0.2286752313375473,0.2529190182685852,0.16233953833580017,0.6662734150886536,0.2331026792526245,0.3081180453300476,0.8018663194444444,0.00010850694444444444,0.7204861111111112,0.7788628472222222,0.0,1.0
9955,0.0,0.6628944277763367,0.5230026245117188,0.7621659636497498,0.2560245394706726,0.2615830898284912,0.18270087242126465,0.5920949578285217,0.2496425062417984,0.3621255159378052,0.8683810763888888,0.00010850694444444444,0.78515625,0.6233723958333334,0.007843137718737125,0.9960784316062927
10004,0.0,0.7223073244094849,0.5774097442626953,0.8013672232627869,0.2484443336725235,0.2826634347438812,0.17856065928936005,0.6462652683258057,0.258378803730011,0.32918038964271545,0.7694227430555556,0.0,0.6903211805555556,0.7042100694444444,0.0117647061124444,1.0
10069,0.0,0.6516314744949341,0.5716269612312317,0.7622106075286865,0.2609882950782776,0.29946935176849365,0.18642833828926086,0.617274820804596,0.2737208604812622,0.3051503896713257,0.6875,0.00021701388888888888,0.8266059027777778,0.5716145833333334,0.0117647061124444,1.0
10103,0.0,0.799490213394165,0.7277249693870544,0.8600040078163147,0.2474766969680786,0.2997830808162689,0.1803276091814041,0.7642625570297241,0.2693738043308258,0.2034715712070465,0.4401041666666667,0.0,0.8248697916666666,0.8016493055555556,0.0117647061124444,1.0
10161,0.0,0.587026834487915,0.49732181429862976,0.716572642326355,0.2533228099346161,0.27880316972732544,0.18258680403232574,0.5491382479667664,0.2591503858566284,0.3599173128604889,0.8069661458333334,0.0,0.8541666666666666,0.4725477430555556,0.04313725605607033,1.0
10187,1.0,0.7108553647994995,0.5238881707191467,0.7911518216133118,0.21544037759304047,0.25947773456573486,0.15421947836875916,0.6102593541145325,0.2288031280040741,0.3749655485153198,0.8069661458333334,0.0003255208333333333,0.8499348958333334,0.6769748263888888,0.0,1.0
10212,1.0,0.6605783700942993,0.5515216588973999,0.7640165686607361,0.2646084427833557,0.2716578245162964,0.18910928070545197,0.6083540320396423,0.2594353258609772,0.3294638395309448,0.8196614583333334,0.0,0.7728949652777778,0.6303168402777778,0.01568627543747425,1.0
10313,1.0,0.6789471507072449,0.46449312567710876,0.7651259303092957,0.22831927239894867,0.22358283400535583,0.1598561704158783,0.5628870129585266,0.2141897976398468,0.4282929301261902,0.9279513888888888,0.0003255208333333333,0.7734375,0.6279296875,0.0,1.0
10319,1.0,0.8514348864555359,0.7930908799171448,0.8964572548866272,0.21833285689353943,0.2690226435661316,0.16013595461845398,0.8223194479942322,0.24038055539131165,0.15381836891174316,0.3492838541666667,0.0,0.7840711805555556,0.8731553819444444,0.0117647061124444,1.0
10347,1.0,0.703770101070404,0.562105119228363,0.7895612716674805,0.2560332715511322,0.2574678957462311,0.18204650282859802,0.6303929686546326,0.24718479812145233,0.33398669958114624,0.85546875,0.0,0.7082248263888888,0.7077907986111112,0.003921568859368563,1.0
10354,1.0,0.5896995067596436,0.49035221338272095,0.7142497301101685,0.2678690254688263,0.2907447814941406,0.1945248395204544,0.5455814003944397,0.2721559405326843,0.3751329183578491,0.8095703125,0.0003255208333333333,0.8381076388888888,0.4806857638888889,0.0,1.0
10397,0.0,0.8255349397659302,0.770686149597168,0.877517819404602,0.25043603777885437,0.3049369752407074,0.184280127286911,0.7992647290229797,0.27396315336227417,0.1729196459054947,0.3428819444444444,0.0,0.8688151041666666,0.8189019097222222,0.01568627543747425,1.0
10560,0.0,0.7606213688850403,0.568794310092926,0.8195610642433167,0.25105082988739014,0.27627670764923096,0.17539525032043457,0.6547380089759827,0.25282588601112366,0.351610004901886,0.8190104166666666,0.00021701388888888888,0.4833984375,0.6848958333333334,0.0,1.0
10592,0.0,0.8313840627670288,0.7761234045028687,0.8825912475585938,0.23762141168117523,0.28469449281692505,0.1715630441904068,0.8047836422920227,0.25674551725387573,0.16364136338233948,0.3896484375,0.0,0.6127387152777778,0.8415798611111112,0.0235294122248888,1.0
10610,0.0,0.7666348218917847,0.6079363226890564,0.8281373977661133,0.240463525056839,0.2982576787471771,0.1744711548089981,0.6804900765419006,0.2632197439670563,0.3156101405620575,0.6633029513888888,0.00010850694444444444,0.6730685763888888,0.7296006944444444,0.007843137718737125,1.0
10622,0.0,0.6861745715141296,0.5057623386383057,0.7761356830596924,0.22102032601833344,0.2362186461687088,0.15698011219501495,0.5905281901359558,0.21968956291675568,0.38455286622047424,0.8976779513888888,0.00043402777777777775,0.8157552083333334,0.67578125,0.003921568859368563,1.0
10697,1.0,0.7722209095954895,0.6726409196853638,0.8430896401405334,0.22390232980251312,0.2564906179904938,0.16042859852313995,0.7218465209007263,0.23461602628231049,0.24022777378559113,0.658203125,0.0003255208333333333,0.7241753472222222,0.8193359375,0.0,1.0
10763,1.0,0.7238357663154602,0.6271569728851318,0.8100540637969971,0.24526889622211456,0.2792292833328247,0.175313338637352,0.6769142150878906,0.256112664937973,0.27223145961761475,0.6848958333333334,0.00010850694444444444,0.7492404513888888,0.7284071180555556,0.003921568859368563,1.0
10854,1.0,0.8007549047470093,0.674518346786499,0.8579257130622864,0.21272589266300201,0.25726819038391113,0.154502734541893,0.7331715226173401,0.22886765003204346,0.2492418885231018,0.6928168402777778,0.0005425347222222222,0.7853732638888888,0.8424479166666666,0.003921568859368563,1.0
10858,0.0,0.6182636618614197,0.4875834286212921,0.7309074997901917,0.2638588845729828,0.27083271741867065,0.19013981521129608,0.5543957352638245,0.258474200963974,0.38758790493011475,0.8693576388888888,0.0,0.8190104166666666,0.5478515625,0.01568627543747425,1.0
10864,0.0,0.8538658618927002,0.7548981308937073,0.8969583511352539,0.17685474455356598,0.22744353115558624,0.12959107756614685,0.80068439245224,0.1975414901971817,0.18416650593280792,0.4701605902777778,0.0007595486111111111,0.7430555555555556,0.9116753472222222,0.0,1.0
10897,1.0,0.7694763541221619,0.6304713487625122,0.8367230296134949,0.21664340794086456,0.2508378028869629,0.1558840423822403,0.695546567440033,0.22769726812839508,0.2834465503692627,0.7615017361111112,0.00010850694444444444,0.7095269097222222,0.8229166666666666,0.003921568859368563,1.0
10898,1.0,0.6428130269050598,0.3970584273338318,0.7341346144676208,0.22795799374580383,0.2056400030851364,0.15905721485614777,0.5089657306671143,0.20213890075683594,0.4921787977218628,0.9517144097222222,0.00010850694444444444,0.7969835069444444,0.5005425347222222,0.007843137718737125,0.9960784316062927
10915,0.0,0.6656824946403503,0.5060167908668518,0.7599689960479736,0.2651887536048889,0.25825732946395874,0.18784496188163757,0.582707405090332,0.25082042813301086,0.38373225927352905,0.8902994791666666,0.00021701388888888888,0.7249348958333334,0.6101345486111112,0.003921568859368563,0.9960784316062927
10924,0.0,0.679925799369812,0.5818376541137695,0.778123676776886,0.2623891830444336,0.2958400845527649,0.18901818990707397,0.6335426568984985,0.27257975935935974,0.3080921173095703,0.7105034722222222,0.0,0.7744140625,0.6439887152777778,0.027450980618596077,1.0
11014,0.0,0.6985805034637451,0.6105835437774658,0.7932807207107544,0.2568475604057312,0.2862037718296051,0.18347536027431488,0.6577220559120178,0.2647618055343628,0.2807537317276001,0.6885850694444444,0.0,0.7552083333333334,0.6826171875,0.0235294122248888,1.0
11111,0.0,0.6004859805107117,0.5097196698188782,0.7228319644927979,0.2698425352573395,0.30289027094841003,0.1956253945827484,0.5611535906791687,0.279615581035614,0.3582349419593811,0.7548828125,0.0,0.8345269097222222,0.4928385416666667,0.0313725508749485,1.0
11143,0.0,0.6824989318847656,0.5052679181098938,0.7717329263687134,0.24266156554222107,0.2377287596464157,0.17207050323486328,0.5886369943618774,0.2293991595506668,0.3861582577228546,0.9103732638888888,0.00043402777777777775,0.7715928819444444,0.6704644097222222,0.003921568859368563,1.0
11171,1.0,0.6743566393852234,0.581610918045044,0.7759612202644348,0.25961604714393616,0.2982524633407593,0.1855507642030716,0.6314978003501892,0.2728065252304077,0.30503249168395996,0.6993272569444444,0.0,0.7645399305555556,0.6239149305555556,0.019607843831181526,1.0
11256,1.0,0.7148377895355225,0.6033284068107605,0.8024369478225708,0.2435269057750702,0.2705986797809601,0.17484617233276367,0.659368097782135,0.25055521726608276,0.2937828302383423,0.7467447916666666,0.0003255208333333333,0.8062065972222222,0.7213541666666666,0.0117647061124444,1.0
11366,1.0,0.6259796023368835,0.48382604122161865,0.735859215259552,0.25189459323883057,0.27247193455696106,0.18230120837688446,0.5550617575645447,0.2542843222618103,0.39507514238357544,0.8461371527777778,0.0003255208333333333,0.8403862847222222,0.5615234375,0.007843137718737125,1.0
11406,1.0,0.7417347431182861,0.6192444562911987,0.8176717162132263,0.2456568330526352,0.2774668037891388,0.17688590288162231,0.6784898042678833,0.2548794746398926,0.29005616903305054,0.7179904513888888,0.0003255208333333333,0.7141927083333334,0.7489149305555556,0.0,1.0
11567,0.0,0.8200550675392151,0.7341618537902832,0.8688236474990845,0.2581920623779297,0.3251647353172302,0.1885329931974411,0.7751953601837158,0.2875085175037384,0.21065032482147217,0.3848741319444444,0.00010850694444444444,0.5334201388888888,0.7749565972222222,0.003921568859368563,1.0
11649,0.0,0.6185568571090698,0.48002707958221436,0.7312709093093872,0.2553207278251648,0.2606751620769501,0.18385708332061768,0.5500892400741577,0.2493254691362381,0.3949102759361267,0.8872612847222222,0.00010850694444444444,0.8298611111111112,0.5501302083333334,0.0117647061124444,0.9960784316062927
11685,0.0,0.5212039947509766,0.4298649728298187,0.6670398712158203,0.254255473613739,0.2737709879875183,0.18490226566791534,0.4842132329940796,0.25693079829216003,0.41374000906944275,0.8529730902777778,0.0,0.8702256944444444,0.3472222222222222,0.027450980618596077,1.0
11709,1.0,0.6671922206878662,0.5434461832046509,0.767212986946106,0.2571786344051361,0.26531240344047546,0.18416324257850647,0.6059556603431702,0.25264066457748413,0.3409792184829712,0.845703125,0.00010850694444444444,0.77734375,0.6439887152777778,0.007843137718737125,1.0
11752,1.0,0.7332780361175537,0.47327497601509094,0.7951486706733704,0.22585777938365936,0.1999567300081253,0.15389689803123474,0.5877094864845276,0.19707389175891876,0.4340580701828003,0.9549696180555556,0.00043402777777777775,0.6090494791666666,0.6976996527777778,0.003921568859368563,1.0
11765,1.0,0.7096818089485168,0.4559287428855896,0.7801125645637512,0.22121919691562653,0.21761104464530945,0.15294881165027618,0.5687578916549683,0.20544803142547607,0.4468219578266144,0.9300130208333334,0.00010850694444444444,0.7126736111111112,0.6271701388888888,0.0117647061124444,1.0
11801,1.0,0.7541083693504333,0.6387786865234375,0.8292564749717712,0.22776485979557037,0.26212871074676514,0.16269131004810333,0.6949767470359802,0.23903565108776093,0.26963838934898376,0.7125651041666666,0.00021701388888888888,0.7076822916666666,0.7897135416666666,0.0,1.0
11825,1.0,0.800682544708252,0.6199988722801208,0.8508803844451904,0.21871642768383026,0.23759602010250092,0.15377777814865112,0.7003438472747803,0.21897418797016144,0.30508628487586975,0.8211805555555556,0.0007595486111111111,0.5291883680555556,0.8254123263888888,0.0,1.0
11849,1.0,0.6481366753578186,0.5605384111404419,0.7600945830345154,0.2525268793106079,0.2788301408290863,0.18091855943202972,0.6094796657562256,0.25892147421836853,0.3127860426902771,0.76171875,0.0,0.8240017361111112,0.6047092013888888,0.0235294122248888,1.0
11885,0.0,0.6502877473831177,0.4685419499874115,0.7492693662643433,0.23509085178375244,0.2412571907043457,0.1680721640586853,0.5548868775367737,0.22842267155647278,0.4164436161518097,0.9052734375,0.0,0.8212890625,0.6000434027777778,0.003921568859368563,1.0
11906,1.0,0.7114617824554443,0.518099844455719,0.789790153503418,0.2254503071308136,0.2610698342323303,0.15953676402568817,0.6068877577781677,0.23368050158023834,0.3827572166919708,0.8323567708333334,0.0,0.7761501736111112,0.6634114583333334,0.0235294122248888,1.0
12009,0.0,0.8717665076255798,0.839658260345459,0.9077057242393494,0.25034472346305847,0.3008415699005127,0.1833350956439972,0.8570160269737244,0.27169930934906006,0.12310416251420975,0.2243923611111111,0.0,0.3372395833333333,0.8409288194444444,0.0313725508749485,1.0
12025,0.0,0.5985558032989502,0.4550973176956177,0.7164428234100342,0.2530435025691986,0.25458183884620667,0.18229541182518005,0.5277847647666931,0.244605153799057,0.4152059257030487,0.8998480902777778,0.00021701388888888888,0.8490668402777778,0.5108506944444444,0.01568627543747425,1.0
12052,0.0,0.7861073017120361,0.6645565032958984,0.8499242663383484,0.2164454609155655,0.24786782264709473,0.15423396229743958,0.7220321297645569,0.22532880306243896,0.25246015191078186,0.697265625,0.0005425347222222222,0.7042100694444444,0.8397352430555556,0.0,1.0
12119,0.0,0.5116847157478333,0.4219273626804352,0.6602775454521179,0.25239798426628113,0.2727620601654053,0.1836470365524292,0.4759366810321808,0.2554421126842499,0.4189232587814331,0.8530815972222222,0.0,0.8774956597222222,0.3277994791666667,0.027450980618596077,1.0
12129,0.0,0.646648645401001,0.5680002570152283,0.7585758566856384,0.2634030282497406,0.29715070128440857,0.1888452023267746,0.6132417321205139,0.27348899841308594,0.30705270171165466,0.7017144097222222,0.0,0.8270399305555556,0.5773654513888888,0.0313725508749485,1.0
12171,0.0,0.8792135119438171,0.8209755420684814,0.9163514375686646,0.18471628427505493,0.2319362610578537,0.13573426008224487,0.8492615222930908,0.20506757497787476,0.1310625821352005,0.3033854166666667,0.0018446180555555555,0.7362196180555556,0.9154730902777778,0.0,1.0
12228,1.0,0.7485507130622864,0.5706869959831238,0.816251814365387,0.23110081255435944,0.24782587587833405,0.16552451252937317,0.651862621307373,0.2306014597415924,0.34002918004989624,0.84375,0.00043402777777777775,0.7220052083333334,0.7769097222222222,0.0,1.0
12236,0.0,0.659641444683075,0.49537336826324463,0.7590461373329163,0.2328687161207199,0.24343155324459076,0.16658979654312134,0.5745481848716736,0.2291484773159027,0.38819998502731323,0.888671875,0.0,0.8393012152777778,0.6489800347222222,0.007843137718737125,1.0
12240,0.0,0.7823448777198792,0.6471324563026428,0.8432717323303223,0.23108169436454773,0.27976393699645996,0.16643589735031128,0.7099208235740662,0.24959710240364075,0.2759396433830261,0.6905381944444444,0.0,0.7084418402777778,0.7923177083333334,0.0,1.0
12508,1.0,0.7130506038665771,0.5671713352203369,0.7892178297042847,0.2736610174179077,0.3466738164424896,0.20034226775169373,0.6361024975776672,0.30534034967422485,0.3512362241744995,0.6124131944444444,0.00010850694444444444,0.6820746527777778,0.5844184027777778,0.003921568859368563,1.0
12529,0.0,0.6899956464767456,0.5833712220191956,0.7855192422866821,0.2452874332666397,0.2921121418476105,0.17637264728546143,0.6382968425750732,0.2613718807697296,0.30736273527145386,0.6915147569444444,0.0,0.8472222222222222,0.6471354166666666,0.03529411926865578,1.0
12545,1.0,0.7363021969795227,0.6068951487541199,0.8157564997673035,0.22740766406059265,0.26076987385749817,0.16285274922847748,0.6693980097770691,0.23788154125213623,0.296882301568985,0.7630208333333334,0.00043402777777777775,0.7530381944444444,0.7648654513888888,0.003921568859368563,1.0
12567,0.0,0.8876765966415405,0.799602210521698,0.9192904233932495,0.16507427394390106,0.20492762327194214,0.12214796990156174,0.8395808935165405,0.18090252578258514,0.15218594670295715,0.3746744791666667,0.0008680555555555555,0.6098090277777778,0.9388020833333334,0.003921568859368563,1.0
12580,0.0,0.8751225471496582,0.8096856474876404,0.9125281572341919,0.1836210936307907,0.2409098893404007,0.13746455311775208,0.8409753441810608,0.2096279263496399,0.1421317160129547,0.2642144097222222,0.00043402777777777775,0.8241102430555556,0.9014756944444444,0.0,1.0
12597,0.0,0.9056351780891418,0.8436100482940674,0.9310343265533447,0.17272375524044037,0.24112291634082794,0.1303904503583908,0.8721219301223755,0.20527289807796478,0.12093310803174973,0.2536892361111111,0.0003255208333333333,0.8128255208333334,0.9177517361111112,0.0,1.0
12617,0.0,0.7768029570579529,0.6681602597236633,0.8430888056755066,0.2307393103837967,0.2866843640804291,0.16732512414455414,0.7205862402915955,0.2539723813533783,0.2521074414253235,0.5726996527777778,0.0006510416666666666,0.7384982638888888,0.7842881944444444,0.0,1.0
12627,0.0,0.6576865315437317,0.5785496830940247,0.767721951007843,0.2548750638961792,0.285574346780777,0.18123558163642883,0.6237772107124329,0.263446569442749,0.2967170774936676,0.7141927083333334,0.00010850694444444444,0.8100043402777778,0.5953776041666666,0.01568627543747425,1.0
12684,0.0,0.8724251389503479,0.8005808591842651,0.910243570804596,0.18745079636573792,0.24500885605812073,0.13880231976509094,0.8345639109611511,0.21346810460090637,0.1503920555114746,0.3477647569444444,0.0006510416666666666,0.7855902777777778,0.9115668402777778,0.0,1.0
12726,0.0,0.6756604313850403,0.5034615993499756,0.7679104804992676,0.24180114269256592,0.23875309526920319,0.17169339954853058,0.5850961804389954,0.22982706129550934,0.38535740971565247,0.9090711805555556,0.00021701388888888888,0.7972005208333334,0.6637369791666666,0.003921568859368563,0.9960784316062927
12756,0.0,0.877403736114502,0.8217460513114929,0.9162015914916992,0.17370323836803436,0.22756293416023254,0.1294160932302475,0.8491556644439697,0.1980600208044052,0.12866614758968353,0.2516276041666667,0.0015190972222222222,0.8381076388888888,0.9114583333333334,0.0,1.0
12771,0.0,0.8942483067512512,0.8490111231803894,0.929107129573822,0.1515774130821228,0.19148316979408264,0.11561021953821182,0.8716679811477661,0.16951635479927063,0.1057242900133133,0.1791449652777778,0.0029296875,0.84765625,0.94140625,0.0,1.0
12778,0.0,0.6291267275810242,0.50727379322052,0.7405161261558533,0.2616528570652008,0.27056488394737244,0.18778322637081146,0.5702974796295166,0.25761160254478455,0.36815378069877625,0.8499348958333334,0.0003255208333333333,0.8053385416666666,0.5554470486111112,0.007843137718737125,1.0
12812,0.0,0.7105962634086609,0.528435230255127,0.7895399928092957,0.23565801978111267,0.26471585035324097,0.16967089474201202,0.6126673221588135,0.2415640950202942,0.3747421205043793,0.8209635416666666,0.0008680555555555555,0.7879774305555556,0.6971571180555556,0.0,1.0
12817,1.0,0.7140262722969055,0.612335741519928,0.7981396317481995,0.269571453332901,0.3256356120109558,0.19705341756343842,0.663922905921936,0.2928908169269562,0.297096312046051,0.6059027777777778,0.0,0.8504774305555556,0.6698133680555556,0.003921568859368563,1.0
12849,1.0,0.6594226360321045,0.45997369289398193,0.7535569667816162,0.231392502784729,0.2364981472492218,0.16266949474811554,0.5530774593353271,0.22240307927131653,0.4275963604450226,0.8967013888888888,0.0005425347222222222,0.78515625,0.5935329861111112,0.0,1.0
12878,1.0,0.7455686926841736,0.5728204846382141,0.8150812387466431,0.2308800220489502,0.25812092423439026,0.16418394446372986,0.6520899534225464,0.2360178828239441,0.3378784954547882,0.8287760416666666,0.00043402777777777775,0.6755642361111112,0.7400173611111112,0.0,1.0
12890,1.0,0.7648701071739197,0.6003093719482422,0.8301951885223389,0.22112862765789032,0.2355988770723343,0.15700207650661469,0.6757199764251709,0.21994401514530182,0.3117828071117401,0.8471137152777778,0.00021701388888888888,0.6726345486111112,0.8156467013888888,0.0,1.0
12896,1.0,0.6563648581504822,0.5141403675079346,0.7595851421356201,0.23664341866970062,0.24933494627475739,0.1707105040550232,0.5846462249755859,0.23526646196842194,0.36697226762771606,0.8830295138888888,0.00010850694444444444,0.8420138888888888,0.6507161458333334,0.007843137718737125,1.0
12934,1.0,0.7704294919967651,0.5240455269813538,0.8218719959259033,0.21740379929542542,0.21797408163547516,0.15178023278713226,0.6316666603088379,0.20509257912635803,0.3942209780216217,0.9165581597222222,0.0003255208333333333,0.5737847222222222,0.7765842013888888,0.0,1.0
12962,1.0,0.6588478088378906,0.5478009581565857,0.7640864253044128,0.24999204277992249,0.27240094542503357,0.17991293966770172,0.6056605577468872,0.25412553548812866,0.3328719735145569,0.8031684027777778,0.0,0.8165147569444444,0.6316189236111112,0.01568627543747425,1.0
13014,0.0,0.7248608469963074,0.5950533747673035,0.8051424026489258,0.24830767512321472,0.2858842611312866,0.17919644713401794,0.6578159332275391,0.26068660616874695,0.31147903203964233,0.736328125,0.0,0.7185329861111112,0.7133246527777778,0.0,1.0
13021,1.0,0.7473285794258118,0.6077036261558533,0.8206052780151367,0.2348013073205948,0.25834643840789795,0.1679709106683731,0.6737223267555237,0.23907159268856049,0.30090537667274475,0.7843967013888888,0.0,0.7035590277777778,0.7721354166666666,0.0,1.0
13133,0.0,0.7511208057403564,0.6171841621398926,0.8242183327674866,0.2314910590648651,0.2569729685783386,0.1654016524553299,0.680833101272583,0.23721559345722198,0.29172688722610474,0.7824435763888888,0.0005425347222222222,0.6886935763888888,0.7805989583333334,0.0,1.0
13209,0.0,0.8629791736602783,0.8030369877815247,0.9028739929199219,0.2186659574508667,0.2939043641090393,0.161327064037323,0.8323410153388977,0.25494155287742615,0.1524018794298172,0.2881944444444444,0.002712673611111111,0.8709852430555556,0.8425564236111112,0.0,1.0
13222,0.0,0.6649024486541748,0.5542734265327454,0.7650986909866333,0.2687380909919739,0.29585176706314087,0.19391104578971863,0.6113855838775635,0.2751666009426117,0.33458414673805237,0.7591145833333334,0.0,0.7513020833333334,0.6137152777777778,0.019607843831181526,1.0
13263,0.0,0.8225848078727722,0.7255319356918335,0.8772262930870056,0.19146189093589783,0.24290016293525696,0.1399136334657669,0.7718439102172852,0.2126474529504776,0.20307178795337677,0.5384114583333334,0.0007595486111111111,0.7528211805555556,0.8983289930555556,0.0,1.0
13270,0.0,0.8932551145553589,0.8256693482398987,0.9229737520217896,0.17632335424423218,0.25126445293426514,0.13368423283100128,0.8569701910018921,0.2120594084262848,0.13446521759033203,0.2637803819444444,0.002712673611111111,0.7694227430555556,0.9031032986111112,0.0,1.0
13552,1.0,0.7000332474708557,0.5178053379058838,0.7829895615577698,0.2355017066001892,0.25318413972854614,0.1689615398645401,0.6025224924087524,0.2359621375799179,0.3814409673213959,0.876953125,0.00010850694444444444,0.7867838541666666,0.6895616319444444,0.003921568859368563,1.0
13609,0.0,0.6739392280578613,0.5705869197845459,0.7733319997787476,0.2621265947818756,0.29678475856781006,0.1890372931957245,0.624602198600769,0.27313971519470215,0.3189255893230438,0.7218967013888888,0.00010850694444444444,0.7697482638888888,0.6325954861111112,0.0117647061124444,1.0
13636,0.0,0.8327512145042419,0.7603937387466431,0.8861979246139526,0.20510894060134888,0.23495157063007355,0.14459848403930664,0.796370267868042,0.21474598348140717,0.1707860380411148,0.4963107638888889,0.0015190972222222222,0.5686848958333334,0.8845486111111112,0.0,1.0
13757,0.0,0.9081640243530273,0.8571537733078003,0.935652494430542,0.16036184132099152,0.20010828971862793,0.12208397686481476,0.8813546299934387,0.17772021889686584,0.10536980628967285,0.20084635416666666,0.0022786458333333335,0.7741970486111112,0.9434678819444444,0.0,1.0
13764,0.0,0.6854212880134583,0.6028441190719604,0.7824686765670776,0.2765507400035858,0.3024774193763733,0.1974434107542038,0.6480119228363037,0.2819439768791199,0.2873426675796509,0.6537543402777778,0.0,0.7367621527777778,0.6351996527777778,0.03921568766236305,1.0
13895,0.0,0.7240387797355652,0.5953099727630615,0.8048688173294067,0.24493153393268585,0.28389492630958557,0.17828817665576935,0.65768963098526,0.25840356945991516,0.3101285398006439,0.7222222222222222,0.00021701388888888888,0.787109375,0.7272135416666666,0.003921568859368563,1.0
13902,1.0,0.6471644043922424,0.47597572207450867,0.7467171549797058,0.2506329417228699,0.2484356164932251,0.1796872317790985,0.5580256581306458,0.23907366394996643,0.40932634472846985,0.9088541666666666,0.0,0.7960069444444444,0.6108940972222222,0.0,1.0
14019,1.0,0.6656883955001831,0.5156360864639282,0.7632553577423096,0.2512555718421936,0.2550602853298187,0.17850783467292786,0.5887303352355957,0.24359610676765442,0.37050357460975647,0.8742404513888888,0.0,0.7594401041666666,0.6320529513888888,0.0,1.0
14032,1.0,0.6829218864440918,0.4780241549015045,0.7687521576881409,0.23619771003723145,0.22140774130821228,0.16534437239170074,0.5724315643310547,0.21621395647525787,0.4143820106983185,0.9251302083333334,0.0,0.7421875,0.6720920138888888,0.0,1.0
14082,1.0,0.7481464743614197,0.5637514591217041,0.8156173229217529,0.2253858745098114,0.2528035640716553,0.1604701429605484,0.6475982666015625,0.23037604987621307,0.3476547300815582,0.8362630208333334,0.0008680555555555555,0.6806640625,0.7554253472222222,0.0,1.0
14171,0.0,0.8505063652992249,0.7342720031738281,0.8879897594451904,0.2203291803598404,0.29027634859085083,0.16114507615566254,0.7865498661994934,0.2510736286640167,0.21491782367229462,0.4493272569444444,0.0003255208333333333,0.4749348958333333,0.8407118055555556,0.0,1.0
14215,0.0,0.5208439826965332,0.4274952709674835,0.6668432950973511,0.2511005103588104,0.27362579107284546,0.18253923952579498,0.4826921820640564,0.25518321990966797,0.4162023663520813,0.8470052083333334,0.0,0.8806423611111112,0.3416883680555556,0.027450980618596077,1.0
14399,1.0,0.6889297366142273,0.4544662833213806,0.7706699371337891,0.21630501747131348,0.19535498321056366,0.14867280423641205,0.5606181025505066,0.1925394982099533,0.43877774477005005,0.9614800347222222,0.00021701388888888888,0.7465277777777778,0.6469184027777778,0.003921568859368563,0.9960784316062927
14407,1.0,0.6852558255195618,0.3967192769050598,0.756964921951294,0.22639703750610352,0.19098412990570068,0.15392306447029114,0.5240596532821655,0.19203460216522217,0.5053524374961853,0.9766710069444444,0.00010850694444444444,0.6769748263888888,0.5192057291666666,0.019607843831181526,1.0
14416,0.0,0.6789416074752808,0.5774599313735962,0.777571439743042,0.2647663652896881,0.2785407602787018,0.18841072916984558,0.6306156516075134,0.2634327709674835,0.30858078598976135,0.7611762152777778,0.0,0.7464192708333334,0.6388888888888888,0.019607843831181526,1.0
14612,1.0,0.7272131443023682,0.6426755785942078,0.8139564990997314,0.2447165548801422,0.28609293699264526,0.17498724162578583,0.6874783039093018,0.2598934471607208,0.25739532709121704,0.6400824652777778,0.0,0.7571614583333334,0.7326388888888888,0.01568627543747425,1.0
14763,0.0,0.6439062356948853,0.541031002998352,0.7550615668296814,0.25420522689819336,0.2678963243961334,0.18162581324577332,0.5961901545524597,0.2533687949180603,0.3325956165790558,0.8145616319444444,0.00010850694444444444,0.8126085069444444,0.5987413194444444,0.0117647061124444,1.0
14884,1.0,0.6432168483734131,0.5307815074920654,0.7533564567565918,0.24662718176841736,0.27725595235824585,0.1782432347536087,0.5897732973098755,0.25557586550712585,0.34646156430244446,0.8003472222222222,0.0,0.8562282986111112,0.5997178819444444,0.01568627543747425,1.0
14890,1.0,0.6794211864471436,0.4958295226097107,0.7689304351806641,0.2388269007205963,0.23903274536132812,0.16964763402938843,0.581856906414032,0.22853292524814606,0.3958926498889923,0.9018012152777778,0.00010850694444444444,0.7738715277777778,0.6663411458333334,0.0,1.0
14972,0.0,0.7257382869720459,0.6119021773338318,0.8093329071998596,0.24195322394371033,0.2720932066440582,0.17305052280426025,0.6684463024139404,0.25052785873413086,0.2892552614212036,0.740234375,0.00010850694444444444,0.7347005208333334,0.7362196180555556,0.01568627543747425,1.0
15000,1.0,0.7311423420906067,0.6238884925842285,0.8132506608963013,0.24319586157798767,0.2815714478492737,0.17549541592597961,0.6775447726249695,0.2568739652633667,0.2807846665382385,0.697265625,0.0003255208333333333,0.7688802083333334,0.7341579861111112,0.007843137718737125,1.0
15044,1.0,0.7991541028022766,0.6054772138595581,0.8506613373756409,0.19438320398330688,0.21636435389518738,0.1353255659341812,0.6913376450538635,0.19597560167312622,0.314060240983963,0.8650173611111112,0.0006510416666666666,0.6394314236111112,0.8429904513888888,0.0,1.0
15124,1.0,0.6354873180389404,0.5466078519821167,0.7505417466163635,0.2552773356437683,0.28107357025146484,0.18429343402385712,0.5964311957359314,0.26162832975387573,0.3246583640575409,0.7835286458333334,0.00010850694444444444,0.8537326388888888,0.5802951388888888,0.007843137718737125,1.0
15153,1.0,0.7052024006843567,0.4589967131614685,0.7787773609161377,0.21741390228271484,0.20870450139045715,0.15234990417957306,0.5690672397613525,0.2001945525407791,0.4412010908126831,0.9370659722222222,0.00010850694444444444,0.7738715277777778,0.6805555555555556,0.003921568859368563,1.0
15275,0.0,0.8608362674713135,0.8011689186096191,0.906761884689331,0.1663067489862442,0.21334312856197357,0.12326421588659286,0.8310469388961792,0.18625113368034363,0.139154314994812,0.2621527777777778,0.0016276041666666667,0.8151041666666666,0.9151475694444444,0.0,1.0
15307,0.0,0.5683262348175049,0.4761595129966736,0.7020382881164551,0.25494253635406494,0.28377747535705566,0.18419215083122253,0.5294675230979919,0.2622811794281006,0.3783550262451172,0.8091362847222222,0.00010850694444444444,0.8625217013888888,0.4273003472222222,0.019607843831181526,1.0
15369,0.0,0.8320609927177429,0.7183968424797058,0.8781620860099792,0.2071983516216278,0.293709933757782,0.15354761481285095,0.7705956697463989,0.24798926711082458,0.22244249284267426,0.4480251736111111,0.0013020833333333333,0.8297526041666666,0.8229166666666666,0.0,1.0
15397,0.0,0.6137982606887817,0.5023161172866821,0.7321929931640625,0.2547959089279175,0.272647500038147,0.18349365890026093,0.5618551969528198,0.25629669427871704,0.3667214810848236,0.8305121527777778,0.0,0.8484157986111112,0.5336371527777778,0.019607843831181526,1.0
15408,0.0,0.5764510631561279,0.40846866369247437,0.69644695520401,0.24545295536518097,0.25448280572891235,0.17786332964897156,0.49152490496635437,0.2407449185848236,0.4646218717098236,0.9025607638888888,0.0,0.8487413194444444,0.4401041666666667,0.003921568859368563,1.0
15459,0.0,0.63344407081604,0.5491127967834473,0.7466456890106201,0.2765122354030609,0.30337005853652954,0.19836503267288208,0.5968465805053711,0.28260669112205505,0.32579344511032104,0.7153862847222222,0.0,0.7808159722222222,0.5421006944444444,0.027450980618596077,1.0
15511,1.0,0.6733932495117188,0.49561119079589844,0.7654241323471069,0.23308755457401276,0.2655433714389801,0.16702786087989807,0.5795267224311829,0.2401597648859024,0.395903617143631,0.8331163194444444,0.00021701388888888888,0.8434244791666666,0.615234375,0.0,1.0
15648,1.0,0.6274042129516602,0.4984017014503479,0.7370689511299133,0.2641001045703888,0.2836988866329193,0.19125045835971832,0.5641815662384033,0.2663131356239319,0.38226163387298584,0.8444010416666666,0.0008680555555555555,0.8019748263888888,0.5431857638888888,0.0,1.0
15676,1.0,0.7255107164382935,0.6452116370201111,0.8117983341217041,0.25563642382621765,0.2935889959335327,0.18372271955013275,0.688211977481842,0.26881110668182373,0.25639331340789795,0.6166449652777778,0.0,0.7625868055555556,0.7202690972222222,0.0235294122248888,1.0
15707,0.0,0.8610196113586426,0.7762105464935303,0.9027790427207947,0.17771081626415253,0.2294166535139084,0.13200725615024567,0.8159973621368408,0.200025275349617,0.16672641038894653,0.3986545138888889,0.003146701388888889,0.7584635416666666,0.9089626736111112,0.0,1.0
15829,0.0,0.8547244668006897,0.7808594107627869,0.898731529712677,0.19237683713436127,0.2566637396812439,0.1432773470878601,0.8163825869560242,0.22189170122146606,0.16380399465560913,0.3244357638888889,0.0015190972222222222,0.8461371527777778,0.8744574652777778,0.0,1.0
15833,0.0,0.8774033188819885,0.8087656497955322,0.9145292639732361,0.1770728975534439,0.2199804186820984,0.13101470470428467,0.8413453698158264,0.19506312906742096,0.1409790962934494,0.2875434027777778,0.0009765625,0.7751736111111112,0.9174262152777778,0.003921568859368563,1.0
15899,0.0,0.5650054216384888,0.4728439152240753,0.6993655562400818,0.25647467374801636,0.28062915802001953,0.18614661693572998,0.5262237191200256,0.2616861164569855,0.38123032450675964,0.8233506944444444,0.00010850694444444444,0.861328125,0.4380425347222222,0.003921568859368563,1.0
15911,0.0,0.882882297039032,0.8084260821342468,0.9160416126251221,0.18826226890087128,0.2354820817708969,0.13979673385620117,0.8429567813873291,0.2087463140487671,0.14673277735710144,0.23795572916666666,0.0003255208333333333,0.7700737847222222,0.9018012152777778,0.007843137718737125,1.0
15918,0.0,0.763130247592926,0.7026833295822144,0.8380578756332397,0.26212894916534424,0.3031463921070099,0.1862524449825287,0.736189603805542,0.2766862213611603,0.21183644235134125,0.5052083333333334,0.0,0.8318142361111112,0.7450086805555556,0.019607843831181526,1.0
15920,1.0,0.6973035335540771,0.4806521236896515,0.7768697142601013,0.22549457848072052,0.23823043704032898,0.15999996662139893,0.5791997909545898,0.22085948288440704,0.41883033514022827,0.8851996527777778,0.0014105902777777778,0.7554253472222222,0.6673177083333334,0.0,1.0
15969,0.0,0.8390387296676636,0.6883075833320618,0.8807679414749146,0.18315410614013672,0.2438468337059021,0.1323338747024536,0.7553166747093201,0.20765332877635956,0.2468186467885971,0.6321614583333334,0.0008680555555555555,0.6588541666666666,0.8798828125,0.0,1.0
15987,1.0,0.6318061351776123,0.43657106161117554,0.7327792644500732,0.23347526788711548,0.2615429162979126,0.17023897171020508,0.528714120388031,0.23889128863811493,0.45184770226478577,0.8639322916666666,0.00010850694444444444,0.8573133680555556,0.5266927083333334,0.0,1.0
16013,1.0,0.6985583305358887,0.49592527747154236,0.778950035572052,0.2400268316268921,0.22820007801055908,0.16944848001003265,0.5887773633003235,0.22255313396453857,0.4016796946525574,0.9258897569444444,0.0,0.7437065972222222,0.693359375,0.003921568859368563,0.9960784316062927
16048,1.0,0.7755582928657532,0.661203920841217,0.8429436683654785,0.22298911213874817,0.271152138710022,0.16060703992843628,0.7161141633987427,0.2420262098312378,0.2561306953430176,0.6443142361111112,0.0006510416666666666,0.7037760416666666,0.80078125,0.0,1.0
16070,1.0,0.7251957654953003,0.5476605296134949,0.8015731573104858,0.229808509349823,0.23996256291866302,0.16344065964221954,0.6296895742416382,0.22561241686344147,0.3549814820289612,0.8794487847222222,0.0,0.7298177083333334,0.7531467013888888,0.0,1.0
16084,1.0,0.6301525831222534,0.437450647354126,0.7359647750854492,0.21661235392093658,0.2233552485704422,0.1531282216310501,0.52909916639328,0.20962820947170258,0.44023236632347107,0.9184027777777778,0.00043402777777777775,0.8543836805555556,0.5451388888888888,0.003921568859368563,1.0
16124,1.0,0.6888454556465149,0.5829589366912842,0.7875604629516602,0.23676885664463043,0.2527387738227844,0.16853661835193634,0.6379435658454895,0.237753227353096,0.3011639714241028,0.8167317708333334,0.00010850694444444444,0.8203125,0.6976996527777778,0.01568627543747425,1.0
16170,1.0,0.7191129326820374,0.46964147686958313,0.7881089448928833,0.21485944092273712,0.20497532188892365,0.14965669810771942,0.5805386900901794,0.19727541506290436,0.43402284383773804,0.9429253472222222,0.0005425347222222222,0.7177734375,0.6897786458333334,0.0,0.9960784316062927
16172,0.0,0.88074791431427,0.8371579647064209,0.9205342531204224,0.16429859399795532,0.2025134414434433,0.12268084287643433,0.8596961498260498,0.18071354925632477,0.11241328716278076,0.2282986111111111,0.001193576388888889,0.8037109375,0.9363064236111112,0.0,1.0
16196,1.0,0.6620059609413147,0.44372791051864624,0.7508965730667114,0.24233828485012054,0.22343312203884125,0.1704540252685547,0.5440102815628052,0.21960291266441345,0.4478970766067505,0.9342447916666666,0.0005425347222222222,0.7606336805555556,0.6073133680555556,0.0,0.9960784316062927
16197,1.0,0.71222984790802,0.43109893798828125,0.7775799632072449,0.21843776106834412,0.19901026785373688,0.14930737018585205,0.554655909538269,0.19237445294857025,0.4740389585494995,0.9447699652777778,0.0008680555555555555,0.6612413194444444,0.6242404513888888,0.0,1.0
16242,0.0,0.7423704862594604,0.6598809361457825,0.8238621950149536,0.24543386697769165,0.2817663848400116,0.17581404745578766,0.7032392024993896,0.2579044699668884,0.24526524543762207,0.6125217013888888,0.00010850694444444444,0.7888454861111112,0.7457682291666666,0.01568627543747425,1.0
16243,0.0,0.702345073223114,0.5819512605667114,0.7917836904525757,0.24982398748397827,0.28625714778900146,0.1790279597043991,0.641869843006134,0.26171955466270447,0.3154430091381073,0.7371961805555556,0.0,0.7362196180555556,0.6818576388888888,0.0117647061124444,1.0
16274,0.0,0.9073899388313293,0.8272024989128113,0.9319180250167847,0.16000431776046753,0.20332977175712585,0.11952938884496689,0.8631161451339722,0.17832498252391815,0.13373146951198578,0.3299696180555556,0.0014105902777777778,0.5991753472222222,0.9415147569444444,0.0,1.0
16298,0.0,0.6053376793861389,0.5062351226806641,0.7278982400894165,0.25511184334754944,0.28041157126426697,0.18352393805980682,0.5611363649368286,0.260696679353714,0.35864365100860596,0.8055555555555556,0.0,0.8334418402777778,0.5095486111111112,0.0235294122248888,1.0
16403,0.0,0.6055713295936584,0.5130327343940735,0.7267459630966187,0.2666047215461731,0.29335686564445496,0.19376128911972046,0.5650650858879089,0.2729107439517975,0.35454028844833374,0.7928602430555556,0.0,0.8608940972222222,0.5224609375,0.04313725605607033,1.0
16459,1.0,0.7694189548492432,0.6052615642547607,0.832861065864563,0.2223266363143921,0.23849213123321533,0.15918344259262085,0.680290937423706,0.22260849177837372,0.3097084164619446,0.86328125,0.00010850694444444444,0.6955295138888888,0.8098958333333334,0.003921568859368563,1.0
16524,1.0,0.7358941435813904,0.49861451983451843,0.8016025424003601,0.21310150623321533,0.20289593935012817,0.14971832931041718,0.6041017770767212,0.19660227000713348,0.40749481320381165,0.9416232638888888,0.0,0.7335069444444444,0.7645399305555556,0.0117647061124444,1.0
16626,0.0,0.7977489829063416,0.6122949123382568,0.847659707069397,0.2022932916879654,0.29324913024902344,0.14682093262672424,0.6945772767066956,0.2433355152606964,0.3158515691757202,0.6295572916666666,0.00010850694444444444,0.7234157986111112,0.7543402777777778,0.01568627543747425,1.0
16716,1.0,0.7203695178031921,0.6368744969367981,0.8077865839004517,0.25583478808403015,0.2965549826622009,0.1845131814479828,0.6813235282897949,0.2706286311149597,0.2642059326171875,0.6252170138888888,0.00021701388888888888,0.7751736111111112,0.7100694444444444,0.007843137718737125,1.0
16768,0.0,0.6124106645584106,0.46465057134628296,0.7269416451454163,0.2465723156929016,0.24534045159816742,0.17691797018051147,0.5387319922447205,0.23666474223136902,0.40714511275291443,0.9098307291666666,0.00010850694444444444,0.8426649305555556,0.5441623263888888,0.019607843831181526,1.0
16813,0.0,0.8184939026832581,0.6346949934959412,0.863488495349884,0.1978093534708023,0.2207179218530655,0.14023618400096893,0.7157332897186279,0.20118340849876404,0.2938087284564972,0.8387586805555556,0.0009765625,0.552734375,0.8658854166666666,0.0,1.0
16852,0.0,0.7762050628662109,0.681778073310852,0.8453609943389893,0.23075157403945923,0.26760968565940857,0.16560669243335724,0.7286602854728699,0.24380595982074738,0.2343931943178177,0.6222873263888888,0.0,0.7124565972222222,0.8116319444444444,0.003921568859368563,1.0
16866,0.0,0.8099971413612366,0.7112362384796143,0.8658748269081116,0.22428563237190247,0.2813744843006134,0.16269059479236603,0.7583944797515869,0.24851076304912567,0.219772070646286,0.5418836805555556,0.0003255208333333333,0.7885199652777778,0.8360460069444444,0.0,1.0
16896,0.0,0.8384208083152771,0.7444887161254883,0.8872323632240295,0.18744443356990814,0.2472248673439026,0.1387186348438263,0.7888472080230713,0.2140732705593109,0.1917552500963211,0.4274088541666667,0.00043402777777777775,0.8047960069444444,0.8807508680555556,0.007843137718737125,1.0
17004,1.0,0.9193955659866333,0.8744642734527588,0.9418194890022278,0.17475445568561554,0.22623595595359802,0.13136321306228638,0.8955771923065186,0.198219895362854,0.09682247042655945,0.22493489583333334,0.0013020833333333333,0.6338975694444444,0.9315321180555556,0.0,1.0
17013,0.0,0.8255446553230286,0.48937055468559265,0.8457218408584595,0.18190893530845642,0.17979690432548523,0.12428385019302368,0.6305106282234192,0.1647215038537979,0.44293466210365295,0.9425998263888888,0.00021701388888888888,0.3356119791666667,0.798828125,0.01568627543747425,1.0
17037,1.0,0.6287802457809448,0.48985952138900757,0.7364284992218018,0.2642670273780823,0.2779601216316223,0.19151055812835693,0.5595057010650635,0.26270246505737305,0.3922096788883209,0.8595920138888888,0.0,0.8074001736111112,0.5640190972222222,0.0117647061124444,1.0
17048,0.0,0.8945210576057434,0.8574707508087158,0.9276463985443115,0.1858047991991043,0.22869277000427246,0.13766013085842133,0.8765488266944885,0.20466041564941406,0.10289739072322845,0.1925998263888889,0.0005425347222222222,0.8331163194444444,0.9159071180555556,0.0,1.0
17240,1.0,0.7928206920623779,0.6809508800506592,0.8537441492080688,0.22776487469673157,0.2674218416213989,0.1634998321533203,0.7340983748435974,0.2419680505990982,0.24257124960422516,0.6452907986111112,0.0003255208333333333,0.6549479166666666,0.8260633680555556,0.0,1.0
17303,0.0,0.8371306657791138,0.7544203400611877,0.8851759433746338,0.21738703548908234,0.2732742428779602,0.15782415866851807,0.79405677318573,0.24165338277816772,0.18636304140090942,0.4510633680555556,0.00010850694444444444,0.6744791666666666,0.8578559027777778,0.003921568859368563,1.0
17319,0.0,0.6534403562545776,0.567025363445282,0.7621395587921143,0.2638164758682251,0.2904832065105438,0.18891024589538574,0.615106463432312,0.27001380920410156,0.310615211725235,0.7265625,0.0,0.7958984375,0.5985243055555556,0.03921568766236305,1.0
17347,0.0,0.6199222803115845,0.43775954842567444,0.7285152077674866,0.2332177758216858,0.22293974459171295,0.16604888439178467,0.525372326374054,0.21721790730953217,0.4382190704345703,0.9354383680555556,0.0,0.8468967013888888,0.5515407986111112,0.0117647061124444,0.9960784316062927
17367,0.0,0.581444501876831,0.49226537346839905,0.7118107676506042,0.2575209438800812,0.28498852252960205,0.1859028935432434,0.5439581274986267,0.264148473739624,0.36485639214515686,0.7993706597222222,0.0,0.8561197916666666,0.4608289930555556,0.0470588244497776,1.0
17373,0.0,0.7026071548461914,0.5700414776802063,0.789667546749115,0.25593888759613037,0.2718970477581024,0.18325458467006683,0.6347159743309021,0.2558317184448242,0.3276726007461548,0.8094618055555556,0.00010850694444444444,0.7281901041666666,0.6858723958333334,0.003921568859368563,1.0
17452,0.0,0.7986536622047424,0.7159760594367981,0.8598894476890564,0.23316605389118195,0.28421762585639954,0.16965174674987793,0.7571027278900146,0.25464579463005066,0.21200740337371826,0.4831814236111111,0.0005425347222222222,0.7264539930555556,0.8174913194444444,0.003921568859368563,1.0
17518,1.0,0.6858600974082947,0.4805968105792999,0.7712920308113098,0.2267833650112152,0.2342889904975891,0.15864545106887817,0.5751097798347473,0.2188647985458374,0.4122455418109894,0.9055989583333334,0.00010850694444444444,0.7761501736111112,0.6277126736111112,0.003921568859368563,1.0
17589,1.0,0.7319040298461914,0.5632207989692688,0.8079453110694885,0.21514275670051575,0.2593151330947876,0.15612487494945526,0.641555666923523,0.23103094100952148,0.34250009059906006,0.8053385416666666,0.0016276041666666667,0.7777777777777778,0.7478298611111112,0.0,1.0
17700,0.0,0.5431177020072937,0.4491119384765625,0.6825618743896484,0.2582845985889435,0.2797280550003052,0.18746021389961243,0.5038329362869263,0.26198694109916687,0.401110976934433,0.8326822916666666,0.0,0.8564453125,0.3905164930555556,0.0313725508749485,1.0
17704,1.0,0.6871846914291382,0.569744884967804,0.7823538184165955,0.24993564188480377,0.2715758681297302,0.1793893277645111,0.6290967464447021,0.253566712141037,0.3200893700122833,0.7899305555555556,0.0022786458333333335,0.7687717013888888,0.6659071180555556,0.0,1.0
17756,0.0,0.5723397135734558,0.48443329334259033,0.7030489444732666,0.2713976800441742,0.29829278588294983,0.19590765237808228,0.5356395244598389,0.27736666798591614,0.37412741780281067,0.7774522569444444,0.00021701388888888888,0.8342013888888888,0.4303385416666667,0.0117647061124444,1.0
17784,0.0,0.6271267533302307,0.4503723382949829,0.7344068884849548,0.23558922111988068,0.22571837902069092,0.1671331822872162,0.5356018543243408,0.21977955102920532,0.42609184980392456,0.9305555555555556,0.00010850694444444444,0.8372395833333334,0.5712890625,0.007843137718737125,1.0
17793,0.0,0.6106584072113037,0.5159070491790771,0.7313061952590942,0.2633427679538727,0.2860617935657501,0.1888488531112671,0.5687932372093201,0.2673534154891968,0.350774884223938,0.7830946180555556,0.0,0.8107638888888888,0.5122612847222222,0.027450980618596077,1.0
17804,0.0,0.5684879422187805,0.46395015716552734,0.7010271549224854,0.24862082302570343,0.27162495255470276,0.18112535774707794,0.5222337245941162,0.25373318791389465,0.39340171217918396,0.8527560763888888,0.0,0.8687065972222222,0.4459635416666667,0.03529411926865578,1.0
17874,0.0,0.6873472332954407,0.6112689971923828,0.7860276699066162,0.26527073979377747,0.29357239603996277,0.1910918653011322,0.6539388298988342,0.27277326583862305,0.2768135666847229,0.6700303819444444,0.00021701388888888888,0.8028428819444444,0.6606987847222222,0.01568627543747425,1.0
18010,1.0,0.8278416395187378,0.75318843126297,0.8817427158355713,0.21069268882274628,0.24912384152412415,0.1517871767282486,0.7901648879051208,0.2253413051366806,0.17921583354473114,0.4738498263888889,0.0003255208333333333,0.6727430555555556,0.8725043402777778,0.0,1.0
18022,1.0,0.7404356598854065,0.5299449563026428,0.8071317076683044,0.22363241016864777,0.23614701628684998,0.15800116956233978,0.6244809627532959,0.2196691930294037,0.37943798303604126,0.8894314236111112,0.0003255208333333333,0.6810980902777778,0.7417534722222222,0.0,1.0
18103,1.0,0.7756931781768799,0.5721617937088013,0.8336694240570068,0.19922426342964172,0.21536657214164734,0.14199405908584595,0.6628296375274658,0.19878244400024414,0.3425872027873993,0.8916015625,0.00043402777777777775,0.7150607638888888,0.8393012152777778,0.0,1.0
18131,1.0,0.7262042164802551,0.5919696688652039,0.8069364428520203,0.2414119690656662,0.26162347197532654,0.17241449654102325,0.656611979007721,0.24400708079338074,0.31012260913848877,0.806640625,0.0,0.7289496527777778,0.7396918402777778,0.003921568859368563,1.0
18184,1.0,0.7434419393539429,0.5562623143196106,0.8120613098144531,0.22491702437400818,0.25158923864364624,0.16043640673160553,0.6413901448249817,0.22945146262645721,0.3538632392883301,0.8385416666666666,0.0003255208333333333,0.6898871527777778,0.7455512152777778,0.0,1.0
18262,0.0,0.7890642285346985,0.6845503449440002,0.8488656282424927,0.2407374083995819,0.33161869645118713,0.17864306271076202,0.7345318794250488,0.2846201956272125,0.2498469054698944,0.4486762152777778,0.00021701388888888888,0.9073350694444444,0.7234157986111112,0.003921568859368563,1.0
18338,0.0,0.8485167026519775,0.7184827327728271,0.8860609531402588,0.2078494131565094,0.2871766686439514,0.1525959074497223,0.7764668464660645,0.24438126385211945,0.22821205854415894,0.4890407986111111,0.0006510416666666666,0.5818142361111112,0.8296440972222222,0.0117647061124444,1.0
18349,0.0,0.7709669470787048,0.6838698983192444,0.8406309485435486,0.24593643844127655,0.2960914373397827,0.17820121347904205,0.7277827262878418,0.2664659917354584,0.23598435521125793,0.5394965277777778,0.0,0.7217881944444444,0.7759331597222222,0.0117647061124444,1.0
18479,0.0,0.6376370191574097,0.5560568571090698,0.752545952796936,0.26160383224487305,0.2916695773601532,0.18651635944843292,0.602849006652832,0.2696203291416168,0.3151615560054779,0.7302517361111112,0.0,0.8083767361111112,0.5531684027777778,0.0313725508749485,1.0
18481,0.0,0.6315543055534363,0.4668334722518921,0.7348495125770569,0.2653864920139313,0.255269318819046,0.18966449797153473,0.5466387867927551,0.2491331547498703,0.4161502420902252,0.9080946180555556,0.00021701388888888888,0.7731119791666666,0.5613064236111112,0.0,0.9960784316062927
18491,1.0,0.6980294585227966,0.5729022026062012,0.7892110347747803,0.24500742554664612,0.2698329985141754,0.17543181777000427,0.6349744200706482,0.25038743019104004,0.32091274857521057,0.7953559027777778,0.00010850694444444444,0.7535807291666666,0.6932508680555556,0.007843137718737125,1.0
18551,1.0,0.7891829609870911,0.6757148504257202,0.8520646691322327,0.22237852215766907,0.2557716369628906,0.15922901034355164,0.7297457456588745,0.23327426612377167,0.24450990557670593,0.6701388888888888,0.00043402777777777775,0.6525607638888888,0.8361545138888888,0.003921568859368563,1.0
18652,1.0,0.7279195189476013,0.6195763349533081,0.8119422197341919,0.23876389861106873,0.27705973386764526,0.17064881324768066,0.6739006042480469,0.25221022963523865,0.2820151746273041,0.6948784722222222,0.0,0.7510850694444444,0.7412109375,0.003921568859368563,1.0
18655,1.0,0.7104983329772949,0.5517237186431885,0.7959831357002258,0.21300384402275085,0.253666490316391,0.1533924788236618,0.6270430088043213,0.2271519899368286,0.3446384370326996,0.8191189236111112,0.00043402777777777775,0.8292100694444444,0.7230902777777778,0.003921568859368563,1.0
18704,1.0,0.6427160501480103,0.42476552724838257,0.7355816960334778,0.250694215297699,0.23611575365066528,0.17813804745674133,0.5253657698631287,0.23091520369052887,0.4673624038696289,0.9358723958333334,0.0,0.7815755208333334,0.5546875,0.003921568859368563,0.9960784316062927
18765,0.0,0.6316189765930176,0.5437313318252563,0.7478447556495667,0.2587547302246094,0.28386038541793823,0.1852927953004837,0.5932786464691162,0.26437079906463623,0.32618051767349243,0.7664930555555556,0.0,0.8231336805555556,0.5581597222222222,0.019607843831181526,1.0
18921,0.0,0.6765357255935669,0.5970392227172852,0.7805793881416321,0.25331562757492065,0.2870079278945923,0.18005461990833282,0.6417322754859924,0.2637007236480713,0.2846268117427826,0.6898871527777778,0.00010850694444444444,0.8031684027777778,0.6290147569444444,0.019607843831181526,1.0
18927,0.0,0.6110209226608276,0.5275914072990417,0.7329984903335571,0.2652101516723633,0.29476872086524963,0.18981479108333588,0.5759532451629639,0.27287736535072327,0.33756378293037415,0.7492404513888888,0.0,0.8185763888888888,0.5030381944444444,0.027450980618596077,1.0
19137,1.0,0.644741415977478,0.5292650461196899,0.7534803152084351,0.25548839569091797,0.2630082368850708,0.18302860856056213,0.5893529653549194,0.250868022441864,0.3465961217880249,0.8474392361111112,0.0,0.8060980902777778,0.6106770833333334,0.01568627543747425,1.0
19176,1.0,0.6878114342689514,0.4948866069316864,0.7757990956306458,0.22049976885318756,0.22226956486701965,0.15424524247646332,0.5845952033996582,0.21070091426372528,0.3953794240951538,0.9206814236111112,0.0003255208333333333,0.78515625,0.6681857638888888,0.003921568859368563,1.0
19228,1.0,0.6986685395240784,0.5625795722007751,0.7858111262321472,0.25672128796577454,0.28617680072784424,0.1853436678647995,0.6287186145782471,0.2641128599643707,0.3375040590763092,0.7748480902777778,0.0003255208333333333,0.7384982638888888,0.6758897569444444,0.0,1.0
19230,1.0,0.6783360838890076,0.5558688044548035,0.775741696357727,0.2523079812526703,0.26293307542800903,0.18005140125751495,0.6175520420074463,0.24922692775726318,0.33038198947906494,0.8343098958333334,0.0,0.7720269097222222,0.6622178819444444,0.0117647061124444,1.0
19258,0.0,0.8349090814590454,0.6724563241004944,0.8770846128463745,0.1893462836742401,0.2244308441877365,0.13502855598926544,0.7443572878837585,0.1995641440153122,0.2607020139694214,0.7740885416666666,0.0020616319444444445,0.5846354166666666,0.8920355902777778,0.0,1.0
19273,1.0,0.6976528763771057,0.44346749782562256,0.7731354236602783,0.21341507136821747,0.19783005118370056,0.14724649488925934,0.5570510029792786,0.19164951145648956,0.45442289113998413,0.9418402777777778,0.001193576388888889,0.7393663194444444,0.6474609375,0.0,1.0
19408,0.0,0.8073402047157288,0.6800163984298706,0.8588725328445435,0.2271893322467804,0.30103737115859985,0.1680573672056198,0.7384757995605469,0.2604644298553467,0.2558404207229614,0.4895833333333333,0.0,0.7488064236111112,0.7667100694444444,0.0117647061124444,1.0
19442,0.0,0.8500532507896423,0.7681304812431335,0.8926342725753784,0.21668799221515656,0.27919819951057434,0.1602572351694107,0.8068187832832336,0.2450246661901474,0.17997954785823822,0.3761935763888889,0.0006510416666666666,0.7850477430555556,0.8521050347222222,0.0,1.0
19580,1.0,0.7084750533103943,0.630036473274231,0.8007829189300537,0.25726550817489624,0.29746684432029724,0.1845695823431015,0.6729546785354614,0.27160823345184326,0.265699177980423,0.6334635416666666,0.0,0.7700737847222222,0.6841362847222222,0.0235294122248888,1.0
19689,1.0,0.7609209418296814,0.6159846186637878,0.8292688131332397,0.22892239689826965,0.2550909221172333,0.1633777767419815,0.6836349964141846,0.2346910834312439,0.2966582477092743,0.7899305555555556,0.00021701388888888888,0.6743706597222222,0.7926432291666666,0.0,1.0
19748,1.0,0.7479962110519409,0.5106277465820312,0.8092184066772461,0.2101372331380844,0.22330333292484283,0.1476832777261734,0.6156402230262756,0.20502270758152008,0.39901790022850037,0.9065755208333334,0.0,0.7271050347222222,0.7411024305555556,0.007843137718737125,1.0
19966,0.0,0.811639130115509,0.7404990792274475,0.8702755570411682,0.23174744844436646,0.2754806578159332,0.16676291823387146,0.7765644192695618,0.24894727766513824,0.18944865465164185,0.5226779513888888,0.0008680555555555555,0.7506510416666666,0.8358289930555556,0.0,1.0
19981,0.0,0.6228141188621521,0.4386638104915619,0.7270433902740479,0.25582996010780334,0.24012726545333862,0.18149130046367645,0.5266000628471375,0.23570814728736877,0.4427469074726105,0.9213324652777778,0.0,0.7853732638888888,0.5385199652777778,0.0117647061124444,0.9960784316062927
20059,1.0,0.6822422742843628,0.5795509219169617,0.7833707332611084,0.23412106931209564,0.26284337043762207,0.16796402633190155,0.6334912180900574,0.24236562848091125,0.303404301404953,0.7861328125,0.0,0.8352864583333334,0.6901041666666666,0.019607843831181526,1.0
20087,1.0,0.7035658359527588,0.6108430027961731,0.7984417676925659,0.24026647210121155,0.2625889778137207,0.17177675664424896,0.6599534153938293,0.24500714242458344,0.2781268060207367,0.7476128472222222,0.00010850694444444444,0.8276909722222222,0.7163628472222222,0.01568627543747425,1.0
20092,1.0,0.6389693021774292,0.38995271921157837,0.7304227948188782,0.23920194804668427,0.19118636846542358,0.16323436796665192,0.5032222270965576,0.19820044934749603,0.49769607186317444,0.9880642361111112,0.00010850694444444444,0.7368706597222222,0.5021701388888888,0.0117647061124444,0.9960784316062927
20099,1.0,0.7527092695236206,0.5613022446632385,0.8174688220024109,0.22276407480239868,0.26853376626968384,0.15797734260559082,0.6477358341217041,0.23716124892234802,0.3518102467060089,0.7768012152777778,0.0,0.7302517361111112,0.7378472222222222,0.01568627543747425,1.0
20213,1.0,0.6775965094566345,0.5482571125030518,0.7745140790939331,0.24581724405288696,0.2681870460510254,0.1775970309972763,0.6127228140830994,0.24983592331409454,0.3403926491737366,0.8286675347222222,0.0,0.8245442708333334,0.6661241319444444,0.007843137718737125,1.0
20274,1.0,0.7175321578979492,0.5985494256019592,0.8010072708129883,0.25930213928222656,0.2795758843421936,0.18527986109256744,0.6572054028511047,0.2616371512413025,0.30305662751197815,0.7638888888888888,0.00010850694444444444,0.693359375,0.7042100694444444,0.003921568859368563,1.0
20405,0.0,0.6257774829864502,0.5304338335990906,0.7429773211479187,0.253855437040329,0.27440014481544495,0.1840561330318451,0.5831716060638428,0.25728991627693176,0.33848223090171814,0.8076171875,0.0006510416666666666,0.8551432291666666,0.5835503472222222,0.003921568859368563,1.0
20414,0.0,0.7532944083213806,0.6769459247589111,0.8322295546531677,0.23937460780143738,0.27619537711143494,0.17225585877895355,0.717476487159729,0.2524257302284241,0.23095780611038208,0.5950520833333334,0.0003255208333333333,0.7387152777777778,0.7824435763888888,0.0117647061124444,1.0
20446,0.0,0.586126446723938,0.5042041540145874,0.7147212028503418,0.2684085965156555,0.2947600483894348,0.19319210946559906,0.5526978373527527,0.2741589844226837,0.35447269678115845,0.7707248263888888,0.0,0.8333333333333334,0.4627821180555556,0.03921568766236305,1.0
20467,0.0,0.6197154521942139,0.5309746861457825,0.7394437789916992,0.25753214955329895,0.2823200821876526,0.1850677877664566,0.5812737345695496,0.2631489038467407,0.335752010345459,0.7789713541666666,0.00010850694444444444,0.8327907986111112,0.541015625,0.003921568859368563,1.0
20591,0.0,0.7145901918411255,0.6423909068107605,0.8053206205368042,0.25952064990997314,0.297320157289505,0.18639394640922546,0.6825525164604187,0.2723693251609802,0.25482097268104553,0.6017795138888888,0.00021701388888888888,0.7836371527777778,0.6971571180555556,0.003921568859368563,1.0
20608,0.0,0.884044349193573,0.8390986919403076,0.9208073019981384,0.17605243623256683,0.22090502083301544,0.13350504636764526,0.86185222864151,0.19625186920166016,0.11518282443284988,0.181640625,0.001736111111111111,0.8650173611111112,0.9172092013888888,0.0,1.0
20634,1.0,0.6613179445266724,0.44350749254226685,0.7523437738418579,0.2294246107339859,0.21805071830749512,0.1595969945192337,0.5438401699066162,0.21066489815711975,0.4448067843914032,0.9363064236111112,0.00021701388888888888,0.779296875,0.5702039930555556,0.003921568859368563,1.0
20711,1.0,0.867059051990509,0.8090559244155884,0.903015673160553,0.22962218523025513,0.3085891604423523,0.17021875083446503,0.8371102213859558,0.26780539751052856,0.15128645300865173,0.2580295138888889,0.00021701388888888888,0.7127821180555556,0.8309461805555556,0.0,1.0
20720,1.0,0.6840064525604248,0.5556895732879639,0.7778841853141785,0.2597982585430145,0.2635740041732788,0.1848759949207306,0.6193865537643433,0.252541720867157,0.3336726129055023,0.8579644097222222,0.0,0.7655164930555556,0.6611328125,0.0235294122248888,1.0
20765,1.0,0.7876238226890564,0.5000093579292297,0.827519953250885,0.20366397500038147,0.20914305746555328,0.1409236192703247,0.6233422756195068,0.19269979000091553,0.4242904782295227,0.927734375,0.0009765625,0.4903428819444444,0.7514105902777778,0.0,1.0
20804,1.0,0.8335035443305969,0.7621089816093445,0.884087324142456,0.21874473989009857,0.26648297905921936,0.1594785749912262,0.797361433506012,0.23871921002864838,0.17609432339668274,0.4112413194444444,0.00043402777777777775,0.7371961805555556,0.857421875,0.007843137718737125,1.0
20812,1.0,0.6322474479675293,0.4777859151363373,0.7363306879997253,0.26569274067878723,0.2674817740917206,0.19200244545936584,0.553443968296051,0.2566184103488922,0.4062838554382324,0.8901909722222222,0.0,0.8028428819444444,0.5770399305555556,0.003921568859368563,1.0
20866,0.0,0.5934474468231201,0.3911113739013672,0.7052522301673889,0.2352725714445114,0.21412251889705658,0.16731444001197815,0.4874219298362732,0.21242032945156097,0.4850050210952759,0.9526909722222222,0.0,0.8389756944444444,0.4652777777777778,0.019607843831181526,0.9960784316062927
20888,0.0,0.8284314274787903,0.7042836546897888,0.8746259808540344,0.21748873591423035,0.2674509286880493,0.15703415870666504,0.7608228921890259,0.23667076230049133,0.23287105560302734,0.6034071180555556,0.0009765625,0.5363498263888888,0.8419053819444444,0.0,1.0
20895,0.0,0.8140271902084351,0.7484204769134521,0.8763949275016785,0.19405832886695862,0.22534099221229553,0.13961534202098846,0.7826259136199951,0.20535510778427124,0.17396517097949982,0.5336371527777778,0.0005425347222222222,0.7467447916666666,0.900390625,0.007843137718737125,1.0
20926,0.0,0.7168253660202026,0.6398382782936096,0.8054904937744141,0.26441460847854614,0.30001702904701233,0.18963110446929932,0.6817417144775391,0.2759438753128052,0.25960519909858704,0.6116536458333334,0.0003255208333333333,0.7587890625,0.6947699652777778,0.007843137718737125,1.0
21008,0.0,0.7750264406204224,0.655620276927948,0.8393152356147766,0.22699806094169617,0.3017311096191406,0.16980944573879242,0.7122639417648315,0.2616158723831177,0.26919081807136536,0.4771050347222222,0.0,0.8160807291666666,0.7281901041666666,0.0235294122248888,1.0
21009,0.0,0.6348366737365723,0.46388891339302063,0.7394607663154602,0.24685722589492798,0.2336600422859192,0.17495013773441315,0.5464174747467041,0.22930939495563507,0.41536593437194824,0.9252387152777778,0.0,0.8006727430555556,0.5831163194444444,0.0117647061124444,0.9960784316062927
21024,0.0,0.6170904636383057,0.48199892044067383,0.7312279343605042,0.25418058037757874,0.2554185390472412,0.18212392926216125,0.5508034229278564,0.2456488162279129,0.39010724425315857,0.8944227430555556,0.00010850694444444444,0.8295355902777778,0.5419921875,0.003921568859368563,1.0
21149,1.0,0.803577721118927,0.5307717323303223,0.8405361175537109,0.19754678010940552,0.20848184823989868,0.13831248879432678,0.6476538777351379,0.19002646207809448,0.3961130380630493,0.9147135416666666,0.0009765625,0.5020616319444444,0.8050130208333334,0.0,1.0
21356,1.0,0.7450665235519409,0.5808270573616028,0.8167803287506104,0.2265828549861908,0.25209951400756836,0.1605016142129898,0.6568334102630615,0.23115698993206024,0.3272344768047333,0.8260633680555556,0.0,0.6888020833333334,0.7622612847222222,0.007843137718737125,1.0
21364,0.0,0.658193826675415,0.5764305591583252,0.7665508985519409,0.26077356934547424,0.29119470715522766,0.18669524788856506,0.6225515604019165,0.26941463351249695,0.3017740845680237,0.712890625,0.0,0.8122829861111112,0.6016710069444444,0.0313725508749485,1.0
21368,0.0,0.606077253818512,0.4997132122516632,0.7256357669830322,0.2628019452095032,0.2937992513179779,0.18984827399253845,0.5572712421417236,0.2715494930744171,0.37124931812286377,0.7900390625,0.0,0.8153211805555556,0.5013020833333334,0.05098039284348488,1.0
21430,0.0,0.6329554915428162,0.5340439677238464,0.7463881969451904,0.26282599568367004,0.280210942029953,0.18863947689533234,0.5878257155418396,0.263749897480011,0.3386055529117584,0.7921006944444444,0.00010850694444444444,0.7994791666666666,0.5723741319444444,0.0117647061124444,1.0
21459,0.0,0.7510489225387573,0.5955767631530762,0.8214728832244873,0.22288326919078827,0.26233866810798645,0.15992802381515503,0.6678151488304138,0.23518480360507965,0.31520459055900574,0.7528211805555556,0.00043402777777777775,0.7188585069444444,0.7514105902777778,0.003921568859368563,1.0
21478,0.0,0.6658871173858643,0.5931649804115295,0.7716533541679382,0.272323340177536,0.30285748839378357,0.1933349370956421,0.6352565288543701,0.2802722156047821,0.2875785827636719,0.6535373263888888,0.00010850694444444444,0.7577039930555556,0.5927734375,0.0,1.0
21492,0.0,0.7011234164237976,0.509678065776825,0.7830601930618286,0.23413501679897308,0.23237724602222443,0.16561102867126465,0.5980857014656067,0.22225575149059296,0.38671624660491943,0.9092881944444444,0.0005425347222222222,0.7591145833333334,0.7006293402777778,0.0,1.0
21688,1.0,0.6399918794631958,0.5275833010673523,0.7496805191040039,0.2559407651424408,0.2893821597099304,0.18481692671775818,0.5865125060081482,0.26625749468803406,0.352029949426651,0.7798394097222222,0.0,0.8117404513888888,0.5700954861111112,0.027450980618596077,1.0
21780,1.0,0.6325185298919678,0.4018280804157257,0.7292245626449585,0.23308126628398895,0.20414456725120544,0.16298873722553253,0.5081276297569275,0.2039698362350464,0.4831693470478058,0.9419487847222222,0.0003255208333333333,0.7855902777777778,0.5298394097222222,0.0,0.9960784316062927
21851,1.0,0.7355673313140869,0.5622012615203857,0.8057258129119873,0.23812921345233917,0.3028624653816223,0.17254513502120972,0.6417995691299438,0.26340383291244507,0.351115882396698,0.7026909722222222,0.0,0.8488498263888888,0.6664496527777778,0.007843137718737125,1.0
21903,0.0,0.5485511422157288,0.44531503319740295,0.6859860420227051,0.25223636627197266,0.27182579040527344,0.18365159630775452,0.5036191940307617,0.2552378475666046,0.4077598750591278,0.8627387152777778,0.0,0.8720703125,0.4091796875,0.0313725508749485,1.0
22005,0.0,0.9118757247924805,0.8595950603485107,0.9341244101524353,0.19511619210243225,0.24657109379768372,0.14577250182628632,0.8837233781814575,0.21825243532657623,0.11193373799324036,0.2016059027777778,0.0003255208333333333,0.4086371527777778,0.9057074652777778,0.0,1.0
22051,1.0,0.6716874241828918,0.5192768573760986,0.7670173048973083,0.24805520474910736,0.25823840498924255,0.17738030850887299,0.5930899977684021,0.24432826042175293,0.3698504567146301,0.8692491319444444,0.0003255208333333333,0.7646484375,0.6409505208333334,0.0,1.0
22074,1.0,0.6791913509368896,0.5837239623069763,0.7783858776092529,0.2619183659553528,0.2896733283996582,0.18799595534801483,0.6344602108001709,0.2688959836959839,0.30398282408714294,0.7205946180555556,0.0,0.767578125,0.6498480902777778,0.027450980618596077,1.0
22152,1.0,0.7348605394363403,0.5182449221611023,0.7998965382575989,0.23973572254180908,0.2552330493927002,0.17045359313488007,0.6151213049888611,0.23640069365501404,0.3937210142612457,0.9128689236111112,0.00043402777777777775,0.6996527777777778,0.6796875,0.0,1.0
22190,0.0,0.6955249309539795,0.6199793219566345,0.7935491800308228,0.2547929883003235,0.29079100489616394,0.18096281588077545,0.6623544692993164,0.26635101437568665,0.2682073414325714,0.6502821180555556,0.00010850694444444444,0.7845052083333334,0.6552734375,0.0117647061124444,1.0
22243,0.0,0.5485383868217468,0.4513101577758789,0.6885234117507935,0.24410881102085114,0.2646016478538513,0.17720606923103333,0.5074236989021301,0.247827410697937,0.3970913887023926,0.8590494791666666,0.0,0.8819444444444444,0.4039713541666667,0.03921568766236305,1.0
22276,1.0,0.7215954661369324,0.6498221158981323,0.811603844165802,0.25106915831565857,0.28204959630966187,0.1782035529613495,0.6897255182266235,0.2599449157714844,0.24546068906784058,0.6219618055555556,0.00010850694444444444,0.7596571180555556,0.7160373263888888,0.003921568859368563,1.0
22344,1.0,0.7207137942314148,0.5238850712776184,0.7961154580116272,0.22730092704296112,0.23125627636909485,0.16030588746070862,0.6137711405754089,0.21864697337150574,0.377827525138855,0.8976779513888888,0.00021701388888888888,0.7205946180555556,0.7375217013888888,0.0,1.0
22363,0.0,0.6866400241851807,0.5774556398391724,0.7819716930389404,0.25749877095222473,0.28885290026664734,0.18476200103759766,0.6334165930747986,0.2665818929672241,0.3146826922893524,0.7356770833333334,0.0,0.7457682291666666,0.6571180555555556,0.019607843831181526,1.0
22460,0.0,0.7206716537475586,0.5016178488731384,0.7937346696853638,0.2170068770647049,0.22414253652095795,0.15125006437301636,0.6004161834716797,0.20847640931606293,0.3993971645832062,0.9140625,0.00010850694444444444,0.7536892361111112,0.703125,0.01568627543747425,1.0
22462,0.0,0.6801449656486511,0.6036356091499329,0.7815424203872681,0.266055703163147,0.2982746958732605,0.18919499218463898,0.6467932462692261,0.275325745344162,0.28167805075645447,0.6546223958333334,0.00010850694444444444,0.7697482638888888,0.6215277777777778,0.01568627543747425,1.0
22627,1.0,0.6978800296783447,0.5075274109840393,0.7820137739181519,0.22783830761909485,0.23323802649974823,0.15997959673404694,0.5957343578338623,0.22042182087898254,0.38725149631500244,0.9067925347222222,0.00010850694444444444,0.7623697916666666,0.6840277777777778,0.007843137718737125,0.9960784316062927
